SpectraSuite Datei
++++++++++++++++++++++++++++++++++++
Datum: Wed Sep 18 18:58:03 CEST 2024
Benutzer: Student
Dark-Spektrum vorhanden: Nein
Referenz-Spektrum vorhanden: Nein
Zahl der probierten Teilspektren: 1
Spektrometer: USB2+H15728
Integrationszeit (usec): 1000 (USB2+H15728)
Spektren Durchschnitt berechnet: 500 (USB2+H15728)
Boxcar Glättung: 0 (USB2+H15728)
Dunkelstromkorrektur: Nein (USB2+H15728)
Puls/Lampe aktiviert: Nein (USB2+H15728)
Correct for Detector Non-linearity: Nein (USB2+H15728)
Streulichtkorrektur: Nein (USB2+H15728)
Anzahl Pixel in verarbeitetem Spektrum: 2048
>>>>>Begin Processed Spectral Data<<<<<
0,00	764,94
1,00	764,94
2,00	764,94
3,00	733,35
4,00	728,27
5,00	732,36
6,00	736,76
7,00	744,87
8,00	752,38
9,00	764,47
10,00	777,39
11,00	793,98
12,00	805,97
13,00	824,88
14,00	838,46
15,00	855,40
16,00	871,90
17,00	888,04
18,00	906,62
19,00	920,61
20,00	936,81
21,00	955,28
22,00	971,12
23,00	1182,42
24,00	1724,97
25,00	1820,13
26,00	1861,62
27,00	1891,97
28,00	1941,12
29,00	1962,60
30,00	1972,40
31,00	2016,26
32,00	2035,81
33,00	2034,85
34,00	2072,83
35,00	2081,93
36,00	2093,95
37,00	2052,29
38,00	2027,67
39,00	2038,71
40,00	2135,32
41,00	2161,04
42,00	2213,27
43,00	2182,62
44,00	2140,10
45,00	2048,77
46,00	2142,81
47,00	2205,10
48,00	2242,09
49,00	2220,77
50,00	2216,32
51,00	2177,32
52,00	2227,45
53,00	2245,68
54,00	2183,66
55,00	2188,98
56,00	2226,16
57,00	2288,28
58,00	2307,15
59,00	2261,66
60,00	2323,12
61,00	2284,93
62,00	2289,02
63,00	2342,29
64,00	2418,62
65,00	2432,03
66,00	2457,23
67,00	2503,03
68,00	2583,46
69,00	2574,20
70,00	2557,99
71,00	2532,78
72,00	2545,14
73,00	2431,83
74,00	2391,71
75,00	2302,00
76,00	2408,08
77,00	2504,41
78,00	2566,42
79,00	2556,16
80,00	2599,90
81,00	2712,68
82,00	2707,81
83,00	2746,61
84,00	2777,65
85,00	2735,30
86,00	2727,93
87,00	2717,83
88,00	2798,29
89,00	2752,24
90,00	2746,59
91,00	2740,79
92,00	2685,84
93,00	2767,25
94,00	2837,62
95,00	2863,63
96,00	2845,05
97,00	2769,05
98,00	2766,55
99,00	2843,80
100,00	2873,36
101,00	2893,36
102,00	2872,52
103,00	2862,44
104,00	2797,71
105,00	2862,41
106,00	2958,73
107,00	2981,11
108,00	3032,45
109,00	3018,68
110,00	2971,29
111,00	2986,13
112,00	2950,53
113,00	2852,83
114,00	2852,66
115,00	2874,00
116,00	2897,88
117,00	2904,88
118,00	2925,89
119,00	2935,41
120,00	2936,37
121,00	2914,17
122,00	2966,72
123,00	2964,73
124,00	3073,79
125,00	2941,80
126,00	2930,47
127,00	2959,05
128,00	2879,58
129,00	2932,20
130,00	3004,09
131,00	3093,49
132,00	3113,97
133,00	3122,19
134,00	3169,30
135,00	3191,98
136,00	3080,87
137,00	3107,81
138,00	3184,70
139,00	3193,31
140,00	3108,15
141,00	2934,76
142,00	2809,49
143,00	2916,43
144,00	3101,15
145,00	3140,83
146,00	3154,27
147,00	3030,17
148,00	3086,75
149,00	3097,66
150,00	3153,29
151,00	3204,04
152,00	3198,90
153,00	3150,77
154,00	3061,29
155,00	3083,53
156,00	3159,61
157,00	3146,72
158,00	3161,98
159,00	3152,18
160,00	3055,58
161,00	3107,78
162,00	3245,07
163,00	3264,89
164,00	3242,59
165,00	3176,23
166,00	2968,67
167,00	2971,87
168,00	3053,83
169,00	3129,43
170,00	3236,54
171,00	3163,66
172,00	3216,54
173,00	3239,59
174,00	3147,48
175,00	3123,91
176,00	3077,88
177,00	3110,14
178,00	3148,12
179,00	3121,39
180,00	3017,24
181,00	2855,91
182,00	2754,45
183,00	2771,92
184,00	2751,80
185,00	2766,10
186,00	2664,57
187,00	2689,66
188,00	2820,00
189,00	3000,18
190,00	3305,56
191,00	3582,49
192,00	3703,52
193,00	3560,92
194,00	3498,98
195,00	3195,38
196,00	3290,59
197,00	3462,00
198,00	3597,63
199,00	3691,04
200,00	3670,83
201,00	3626,88
202,00	3476,40
203,00	3286,37
204,00	3186,52
205,00	3343,77
206,00	3478,97
207,00	3641,45
208,00	3665,57
209,00	3672,20
210,00	3603,75
211,00	3626,51
212,00	3706,98
213,00	3731,02
214,00	3802,08
215,00	3863,94
216,00	3918,55
217,00	3891,62
218,00	3901,87
219,00	3880,80
220,00	3864,08
221,00	3787,95
222,00	3750,83
223,00	3762,27
224,00	3798,80
225,00	3837,66
226,00	3769,19
227,00	3419,58
228,00	3497,32
229,00	3597,57
230,00	3678,90
231,00	3686,56
232,00	3755,32
233,00	3839,74
234,00	3848,10
235,00	3951,37
236,00	3898,57
237,00	3873,68
238,00	3846,99
239,00	3714,42
240,00	3773,58
241,00	3980,04
242,00	4068,53
243,00	4067,13
244,00	3987,61
245,00	4017,52
246,00	4203,34
247,00	4299,03
248,00	4205,15
249,00	4135,13
250,00	4174,13
251,00	4223,86
252,00	4223,95
253,00	4136,67
254,00	4178,46
255,00	4098,04
256,00	4074,99
257,00	4209,88
258,00	4198,26
259,00	4140,36
260,00	4137,64
261,00	4281,08
262,00	4348,46
263,00	4274,38
264,00	4289,40
265,00	4225,25
266,00	4078,71
267,00	3963,15
268,00	3934,60
269,00	3980,79
270,00	4101,35
271,00	4057,82
272,00	4174,92
273,00	4205,18
274,00	4182,96
275,00	4236,92
276,00	4302,99
277,00	4413,35
278,00	4419,45
279,00	4358,15
280,00	4297,73
281,00	4219,41
282,00	4301,94
283,00	4410,65
284,00	4422,77
285,00	4305,25
286,00	4365,95
287,00	4337,48
288,00	4335,32
289,00	4343,46
290,00	4412,33
291,00	4413,23
292,00	4481,83
293,00	4568,85
294,00	4637,05
295,00	4665,45
296,00	4637,68
297,00	4498,30
298,00	4576,86
299,00	4514,46
300,00	4536,33
301,00	4473,85
302,00	4516,01
303,00	4515,66
304,00	4378,52
305,00	4365,93
306,00	4293,75
307,00	4254,14
308,00	4224,48
309,00	4319,03
310,00	4261,73
311,00	4412,93
312,00	4498,18
313,00	4492,05
314,00	4505,93
315,00	4503,07
316,00	4553,60
317,00	4429,08
318,00	4396,10
319,00	4359,96
320,00	4435,88
321,00	4470,04
322,00	4553,65
323,00	4658,71
324,00	4670,19
325,00	4694,27
326,00	4705,93
327,00	4614,80
328,00	4676,97
329,00	4738,03
330,00	4751,12
331,00	4728,30
332,00	4804,31
333,00	4799,95
334,00	4761,60
335,00	4643,65
336,00	4616,16
337,00	4611,60
338,00	4691,22
339,00	4717,06
340,00	4779,32
341,00	4817,78
342,00	4692,91
343,00	4746,00
344,00	4804,99
345,00	4856,59
346,00	4810,64
347,00	4874,55
348,00	4775,66
349,00	4939,68
350,00	4972,05
351,00	5076,69
352,00	5114,80
353,00	5080,06
354,00	5081,72
355,00	5103,86
356,00	5160,63
357,00	5172,63
358,00	5241,11
359,00	5195,57
360,00	5247,50
361,00	5331,89
362,00	5284,63
363,00	5289,24
364,00	5321,57
365,00	5302,93
366,00	5269,56
367,00	5217,48
368,00	5298,77
369,00	5410,39
370,00	5294,72
371,00	5342,76
372,00	5196,52
373,00	5291,75
374,00	5309,04
375,00	5420,61
376,00	5456,79
377,00	5474,12
378,00	5556,28
379,00	5564,43
380,00	5574,34
381,00	5503,44
382,00	5410,08
383,00	5181,03
384,00	5179,10
385,00	5320,46
386,00	5423,01
387,00	5542,34
388,00	5563,07
389,00	5528,83
390,00	5594,21
391,00	5443,93
392,00	5520,24
393,00	5634,86
394,00	5601,51
395,00	5626,93
396,00	5609,50
397,00	5635,03
398,00	5749,69
399,00	5720,13
400,00	5743,62
401,00	5653,67
402,00	5582,88
403,00	5538,19
404,00	5561,15
405,00	5637,29
406,00	5609,07
407,00	5653,79
408,00	5712,74
409,00	5898,90
410,00	5824,30
411,00	5929,33
412,00	6064,37
413,00	6124,19
414,00	6163,85
415,00	6258,70
416,00	6242,86
417,00	6105,96
418,00	5945,60
419,00	6052,61
420,00	6081,50
421,00	6184,38
422,00	6117,50
423,00	6214,76
424,00	6320,89
425,00	6357,08
426,00	6406,95
427,00	6488,26
428,00	6486,07
429,00	6556,36
430,00	6529,68
431,00	6456,61
432,00	6438,71
433,00	6448,27
434,00	6545,87
435,00	6585,85
436,00	6570,72
437,00	6456,56
438,00	6390,66
439,00	6400,60
440,00	6559,81
441,00	6752,53
442,00	6753,21
443,00	6925,05
444,00	7031,44
445,00	7075,34
446,00	7066,33
447,00	7058,90
448,00	7008,50
449,00	7039,15
450,00	6934,23
451,00	6988,81
452,00	7117,76
453,00	7095,57
454,00	7319,43
455,00	7483,28
456,00	7392,61
457,00	7310,31
458,00	7213,55
459,00	7470,41
460,00	7430,81
461,00	7392,68
462,00	7421,64
463,00	7490,21
464,00	7629,85
465,00	7641,70
466,00	7755,33
467,00	7855,86
468,00	7960,28
469,00	7940,86
470,00	7829,15
471,00	7801,39
472,00	7898,62
473,00	7911,93
474,00	7882,05
475,00	7958,62
476,00	7955,47
477,00	8027,14
478,00	8118,81
479,00	8024,70
480,00	7964,08
481,00	7971,49
482,00	7997,47
483,00	8220,05
484,00	8264,74
485,00	8228,14
486,00	8332,70
487,00	8203,46
488,00	8084,28
489,00	7770,73
490,00	7689,42
491,00	7224,70
492,00	6528,46
493,00	6777,70
494,00	7318,95
495,00	7848,75
496,00	8128,74
497,00	8096,31
498,00	7742,20
499,00	8023,15
500,00	8353,15
501,00	8570,05
502,00	8626,41
503,00	8994,38
504,00	9002,72
505,00	8918,87
506,00	8651,22
507,00	8683,01
508,00	8687,14
509,00	8305,14
510,00	8855,38
511,00	9410,98
512,00	9702,87
513,00	9635,73
514,00	9693,78
515,00	9635,97
516,00	9478,32
517,00	9719,62
518,00	9906,50
519,00	9647,80
520,00	9399,13
521,00	9449,96
522,00	9828,18
523,00	9972,56
524,00	9696,62
525,00	9059,59
526,00	9029,38
527,00	9518,10
528,00	9596,44
529,00	10070,57
530,00	10344,73
531,00	10488,02
532,00	10634,45
533,00	10195,45
534,00	10340,06
535,00	10286,95
536,00	10090,23
537,00	10277,87
538,00	10809,66
539,00	11098,03
540,00	10966,61
541,00	11152,74
542,00	11287,87
543,00	11433,71
544,00	11337,06
545,00	11356,91
546,00	10915,20
547,00	10371,94
548,00	11193,33
549,00	11738,94
550,00	11729,16
551,00	11713,78
552,00	11549,89
553,00	11513,85
554,00	11574,59
555,00	11850,74
556,00	12129,03
557,00	12182,15
558,00	12077,48
559,00	11873,45
560,00	11865,32
561,00	11181,63
562,00	10985,87
563,00	11484,58
564,00	12193,02
565,00	12315,46
566,00	12295,81
567,00	12389,86
568,00	12590,77
569,00	12793,49
570,00	12743,24
571,00	12432,87
572,00	12296,48
573,00	12389,37
574,00	12154,59
575,00	11944,42
576,00	12665,22
577,00	12727,02
578,00	12461,02
579,00	12157,59
580,00	12478,28
581,00	12388,22
582,00	12435,59
583,00	13041,70
584,00	12941,47
585,00	13371,44
586,00	13462,60
587,00	13103,91
588,00	13555,75
589,00	13953,94
590,00	14325,07
591,00	13920,49
592,00	13424,01
593,00	13374,42
594,00	13100,66
595,00	12618,66
596,00	13741,19
597,00	14659,31
598,00	14884,68
599,00	14321,14
600,00	14252,35
601,00	14428,68
602,00	14900,64
603,00	15313,77
604,00	15323,20
605,00	15555,27
606,00	15754,91
607,00	15913,35
608,00	15498,50
609,00	15134,19
610,00	15351,99
611,00	15596,73
612,00	15748,28
613,00	15480,66
614,00	15681,72
615,00	15760,34
616,00	15749,63
617,00	14795,33
618,00	15375,05
619,00	15713,02
620,00	16314,76
621,00	16528,11
622,00	16733,57
623,00	16874,56
624,00	17280,87
625,00	17566,57
626,00	17229,98
627,00	16625,37
628,00	15967,22
629,00	16845,71
630,00	17471,13
631,00	17516,56
632,00	17332,15
633,00	17112,51
634,00	17336,10
635,00	17415,59
636,00	18311,63
637,00	18366,19
638,00	18466,35
639,00	18875,99
640,00	18971,32
641,00	18421,88
642,00	18176,48
643,00	17692,52
644,00	17900,05
645,00	18163,53
646,00	18161,87
647,00	18544,98
648,00	18634,25
649,00	19071,61
650,00	18659,32
651,00	18185,88
652,00	18231,96
653,00	18452,16
654,00	18670,88
655,00	19257,54
656,00	19029,16
657,00	19254,56
658,00	19544,28
659,00	19469,93
660,00	19600,51
661,00	19894,39
662,00	20451,11
663,00	20588,18
664,00	20526,32
665,00	19602,48
666,00	18952,56
667,00	17434,74
668,00	15770,43
669,00	17454,69
670,00	17314,19
671,00	15736,20
672,00	19152,95
673,00	20804,92
674,00	21189,51
675,00	21040,57
676,00	19478,77
677,00	16247,52
678,00	17642,65
679,00	20765,75
680,00	21188,74
681,00	21517,38
682,00	20421,38
683,00	21029,74
684,00	21403,45
685,00	21858,53
686,00	22640,93
687,00	23062,74
688,00	22994,20
689,00	22485,57
690,00	21514,92
691,00	21927,26
692,00	22032,07
693,00	23430,04
694,00	24225,82
695,00	24136,72
696,00	23017,28
697,00	23533,13
698,00	24658,02
699,00	24826,70
700,00	24849,53
701,00	23595,13
702,00	22099,45
703,00	22373,20
704,00	24146,93
705,00	24669,46
706,00	23715,79
707,00	24164,10
708,00	25266,56
709,00	26094,39
710,00	26207,39
711,00	26490,44
712,00	26132,56
713,00	26770,15
714,00	26438,89
715,00	26391,26
716,00	26089,51
717,00	26382,30
718,00	26693,70
719,00	26593,96
720,00	27597,05
721,00	27995,71
722,00	27446,96
723,00	25680,01
724,00	24002,00
725,00	23529,74
726,00	24196,07
727,00	23911,54
728,00	23568,02
729,00	26229,29
730,00	26256,35
731,00	26526,31
732,00	28562,84
733,00	29052,77
734,00	27679,13
735,00	27726,10
736,00	27553,22
737,00	29824,85
738,00	30447,40
739,00	30694,74
740,00	31082,13
741,00	30859,42
742,00	30742,73
743,00	29941,90
744,00	28252,87
745,00	29566,80
746,00	30367,02
747,00	30755,71
748,00	31900,81
749,00	32082,98
750,00	32102,17
751,00	32879,77
752,00	32573,07
753,00	32616,53
754,00	32434,26
755,00	31936,24
756,00	31887,76
757,00	33094,40
758,00	32016,09
759,00	31693,05
760,00	30677,16
761,00	30715,05
762,00	28189,66
763,00	31661,49
764,00	33130,78
765,00	33076,81
766,00	34567,48
767,00	33906,44
768,00	33820,31
769,00	32402,61
770,00	33608,18
771,00	34571,26
772,00	34633,33
773,00	35030,89
774,00	34323,08
775,00	35155,16
776,00	35976,96
777,00	36914,24
778,00	37135,27
779,00	37760,83
780,00	37747,79
781,00	37513,25
782,00	36492,11
783,00	36359,00
784,00	35501,79
785,00	35628,80
786,00	35251,81
787,00	34025,04
788,00	35649,16
789,00	37952,66
790,00	38747,01
791,00	38837,55
792,00	38952,07
793,00	38273,32
794,00	38069,08
795,00	38475,50
796,00	39286,17
797,00	39666,34
798,00	39190,16
799,00	38526,90
800,00	38325,43
801,00	38529,63
802,00	38578,73
803,00	37782,40
804,00	39143,09
805,00	39435,54
806,00	39402,43
807,00	36916,21
808,00	37295,25
809,00	39438,47
810,00	39387,42
811,00	39711,46
812,00	41393,60
813,00	40747,55
814,00	41625,30
815,00	42528,49
816,00	42346,64
817,00	41954,73
818,00	41854,10
819,00	40822,25
820,00	43577,94
821,00	43348,94
822,00	41049,79
823,00	42481,19
824,00	42736,16
825,00	41956,17
826,00	43015,44
827,00	44939,00
828,00	46236,29
829,00	46068,09
830,00	45735,02
831,00	44366,51
832,00	42930,78
833,00	44593,30
834,00	46840,68
835,00	46948,45
836,00	46666,71
837,00	44387,20
838,00	44810,47
839,00	47580,15
840,00	47759,35
841,00	46721,85
842,00	45275,22
843,00	47005,98
844,00	47450,84
845,00	48237,69
846,00	48357,73
847,00	48719,90
848,00	47614,10
849,00	47239,47
850,00	44959,92
851,00	47038,24
852,00	48317,77
853,00	47567,12
854,00	49187,48
855,00	50569,07
856,00	49925,85
857,00	48892,57
858,00	50104,64
859,00	50896,03
860,00	50519,68
861,00	50597,35
862,00	50684,52
863,00	50734,40
864,00	51615,44
865,00	50276,61
866,00	50705,59
867,00	51426,83
868,00	50396,46
869,00	51468,99
870,00	51709,96
871,00	51125,45
872,00	50637,98
873,00	52108,70
874,00	52615,58
875,00	53414,75
876,00	53699,14
877,00	53594,72
878,00	53222,54
879,00	53130,93
880,00	51888,30
881,00	50132,63
882,00	52655,64
883,00	53681,61
884,00	53721,88
885,00	53295,98
886,00	53536,27
887,00	54827,76
888,00	54804,18
889,00	54961,81
890,00	54083,12
891,00	55001,31
892,00	55138,18
893,00	55249,27
894,00	56221,37
895,00	55939,16
896,00	55342,27
897,00	55078,41
898,00	55642,59
899,00	55514,09
900,00	55560,39
901,00	55672,96
902,00	54660,96
903,00	55062,32
904,00	54999,08
905,00	54840,59
906,00	54806,89
907,00	55205,13
908,00	53815,03
909,00	55888,28
910,00	55496,38
911,00	56332,11
912,00	56538,48
913,00	56396,91
914,00	56180,73
915,00	56234,74
916,00	53768,73
917,00	52180,33
918,00	53633,51
919,00	55396,80
920,00	55519,48
921,00	54853,59
922,00	56721,90
923,00	55741,92
924,00	55243,30
925,00	55208,07
926,00	54528,36
927,00	56675,15
928,00	58456,29
929,00	58524,94
930,00	58680,18
931,00	58547,83
932,00	58685,54
933,00	56485,18
934,00	53850,51
935,00	56719,28
936,00	57323,82
937,00	58041,59
938,00	58121,62
939,00	56417,36
940,00	56939,71
941,00	58182,95
942,00	58389,43
943,00	58958,20
944,00	59068,00
945,00	58055,12
946,00	58037,81
947,00	57749,20
948,00	58025,32
949,00	58042,58
950,00	57997,37
951,00	58336,15
952,00	58701,48
953,00	58829,65
954,00	58899,47
955,00	58381,90
956,00	58805,63
957,00	58301,18
958,00	57428,06
959,00	58052,12
960,00	55596,42
961,00	57355,64
962,00	57543,73
963,00	57606,51
964,00	58852,53
965,00	58258,48
966,00	58479,34
967,00	59206,35
968,00	59532,27
969,00	59857,64
970,00	59113,79
971,00	59378,18
972,00	59637,78
973,00	59284,51
974,00	58319,71
975,00	57569,18
976,00	57794,17
977,00	57822,20
978,00	57147,71
979,00	57912,23
980,00	58539,13
981,00	58928,25
982,00	59186,67
983,00	59200,67
984,00	58999,25
985,00	58465,89
986,00	58150,98
987,00	58545,48
988,00	59162,91
989,00	58177,93
990,00	57438,99
991,00	56631,09
992,00	56585,21
993,00	57247,24
994,00	58481,13
995,00	58916,44
996,00	59318,86
997,00	58803,28
998,00	59418,80
999,00	59609,77
1000,00	59848,36
1001,00	60100,37
1002,00	59660,59
1003,00	59964,27
1004,00	59785,75
1005,00	59445,02
1006,00	59512,40
1007,00	59823,48
1008,00	59386,49
1009,00	59643,84
1010,00	59631,77
1011,00	59439,42
1012,00	59460,19
1013,00	59641,77
1014,00	59282,96
1015,00	58959,40
1016,00	59580,43
1017,00	58901,58
1018,00	57975,09
1019,00	57863,05
1020,00	58829,07
1021,00	59318,96
1022,00	59185,82
1023,00	58389,18
1024,00	57702,72
1025,00	59101,71
1026,00	59697,30
1027,00	59735,82
1028,00	59588,30
1029,00	59475,41
1030,00	58716,81
1031,00	58957,89
1032,00	59108,19
1033,00	59535,12
1034,00	59559,46
1035,00	57879,70
1036,00	57479,16
1037,00	57621,65
1038,00	57831,18
1039,00	58377,63
1040,00	59102,17
1041,00	58934,75
1042,00	58543,01
1043,00	58764,40
1044,00	59492,80
1045,00	59367,40
1046,00	58574,79
1047,00	59361,07
1048,00	59937,91
1049,00	59603,70
1050,00	59061,07
1051,00	58852,42
1052,00	59301,60
1053,00	59040,53
1054,00	59828,90
1055,00	59679,49
1056,00	59429,06
1057,00	58631,19
1058,00	59018,06
1059,00	59582,54
1060,00	60001,01
1061,00	59605,92
1062,00	60054,04
1063,00	60200,65
1064,00	59852,86
1065,00	59910,39
1066,00	59924,52
1067,00	59667,46
1068,00	59461,06
1069,00	59672,42
1070,00	59774,62
1071,00	59371,92
1072,00	60084,79
1073,00	59740,40
1074,00	60049,78
1075,00	59890,68
1076,00	59676,09
1077,00	59254,07
1078,00	59545,26
1079,00	59111,74
1080,00	58744,84
1081,00	58597,63
1082,00	58293,81
1083,00	56878,13
1084,00	58059,62
1085,00	58413,68
1086,00	58094,54
1087,00	58831,28
1088,00	58864,43
1089,00	58854,56
1090,00	58976,65
1091,00	59105,98
1092,00	59121,65
1093,00	58594,63
1094,00	58835,35
1095,00	58453,99
1096,00	58571,06
1097,00	57961,79
1098,00	57856,82
1099,00	57311,34
1100,00	57098,54
1101,00	56386,67
1102,00	54765,52
1103,00	47014,12
1104,00	50178,54
1105,00	52938,02
1106,00	53697,74
1107,00	48215,77
1108,00	52622,27
1109,00	54222,20
1110,00	55204,79
1111,00	56536,16
1112,00	57142,68
1113,00	56757,56
1114,00	56961,44
1115,00	56910,44
1116,00	56702,49
1117,00	56993,40
1118,00	56012,42
1119,00	55679,64
1120,00	56562,61
1121,00	55360,13
1122,00	55867,87
1123,00	56441,43
1124,00	56057,41
1125,00	56185,57
1126,00	57251,71
1127,00	56891,65
1128,00	55954,09
1129,00	56174,49
1130,00	56407,50
1131,00	56326,54
1132,00	57010,61
1133,00	57259,51
1134,00	57063,03
1135,00	55556,51
1136,00	54427,33
1137,00	55663,95
1138,00	55212,42
1139,00	54938,59
1140,00	53945,30
1141,00	55072,22
1142,00	55776,67
1143,00	55932,59
1144,00	56251,63
1145,00	55732,99
1146,00	54934,62
1147,00	56023,47
1148,00	56705,15
1149,00	56703,60
1150,00	57012,97
1151,00	56042,53
1152,00	55343,29
1153,00	55792,67
1154,00	56178,46
1155,00	56745,85
1156,00	56532,65
1157,00	54841,14
1158,00	54129,84
1159,00	55483,92
1160,00	56332,82
1161,00	55965,18
1162,00	55087,17
1163,00	54784,05
1164,00	55011,27
1165,00	55154,67
1166,00	55455,79
1167,00	55065,03
1168,00	55811,50
1169,00	55934,97
1170,00	55584,69
1171,00	54692,94
1172,00	55412,07
1173,00	55451,61
1174,00	55113,01
1175,00	55061,13
1176,00	55391,08
1177,00	54245,15
1178,00	53664,58
1179,00	55375,42
1180,00	55091,22
1181,00	54018,90
1182,00	54695,74
1183,00	53665,39
1184,00	54826,16
1185,00	53256,02
1186,00	53070,32
1187,00	53689,46
1188,00	53469,82
1189,00	54377,32
1190,00	54518,54
1191,00	54835,24
1192,00	54880,14
1193,00	55222,63
1194,00	55090,13
1195,00	54924,09
1196,00	54930,80
1197,00	55093,45
1198,00	54839,07
1199,00	54440,32
1200,00	54112,37
1201,00	54629,24
1202,00	54881,11
1203,00	54442,64
1204,00	54930,71
1205,00	54786,52
1206,00	54201,91
1207,00	53899,33
1208,00	52857,98
1209,00	53752,50
1210,00	53881,32
1211,00	54013,97
1212,00	53904,95
1213,00	53340,14
1214,00	52570,58
1215,00	53291,48
1216,00	53477,32
1217,00	53627,65
1218,00	54086,69
1219,00	53685,19
1220,00	53500,13
1221,00	53423,99
1222,00	52518,79
1223,00	51830,81
1224,00	52532,92
1225,00	52205,15
1226,00	52296,98
1227,00	51947,82
1228,00	52079,40
1229,00	52366,63
1230,00	51985,25
1231,00	51689,37
1232,00	51802,67
1233,00	52029,21
1234,00	51748,29
1235,00	52085,09
1236,00	52050,55
1237,00	51058,66
1238,00	47367,78
1239,00	50003,00
1240,00	50938,65
1241,00	51145,35
1242,00	51175,95
1243,00	51002,24
1244,00	51417,42
1245,00	51313,22
1246,00	50996,16
1247,00	50468,94
1248,00	51075,96
1249,00	50471,57
1250,00	49005,01
1251,00	48074,76
1252,00	49836,89
1253,00	49748,77
1254,00	49508,83
1255,00	49680,87
1256,00	50099,64
1257,00	49938,50
1258,00	50237,26
1259,00	49080,65
1260,00	45832,16
1261,00	47094,07
1262,00	48921,40
1263,00	47419,77
1264,00	48282,21
1265,00	49044,77
1266,00	49259,19
1267,00	48614,31
1268,00	48588,91
1269,00	48952,30
1270,00	48866,20
1271,00	48297,33
1272,00	47380,51
1273,00	47727,75
1274,00	48228,23
1275,00	47184,14
1276,00	43535,81
1277,00	43875,22
1278,00	46418,37
1279,00	45820,64
1280,00	47093,64
1281,00	44168,43
1282,00	45548,69
1283,00	47169,05
1284,00	46975,77
1285,00	46468,43
1286,00	46838,39
1287,00	47462,87
1288,00	46777,87
1289,00	48081,98
1290,00	47321,13
1291,00	47367,38
1292,00	46849,33
1293,00	46236,42
1294,00	46418,92
1295,00	44487,52
1296,00	45725,33
1297,00	46137,67
1298,00	45998,52
1299,00	47006,13
1300,00	46716,74
1301,00	45928,93
1302,00	46315,04
1303,00	46654,19
1304,00	46558,24
1305,00	46337,37
1306,00	46328,66
1307,00	46408,39
1308,00	45864,39
1309,00	45558,75
1310,00	44424,57
1311,00	44162,95
1312,00	45095,19
1313,00	44274,09
1314,00	43567,79
1315,00	44919,11
1316,00	44995,51
1317,00	44880,54
1318,00	44493,19
1319,00	44783,08
1320,00	43321,98
1321,00	42026,02
1322,00	42508,67
1323,00	43873,86
1324,00	44262,85
1325,00	43079,22
1326,00	43379,27
1327,00	43292,13
1328,00	43734,67
1329,00	42888,33
1330,00	42472,50
1331,00	41093,86
1332,00	42538,83
1333,00	43127,43
1334,00	43210,82
1335,00	41217,91
1336,00	40594,83
1337,00	41368,66
1338,00	41380,30
1339,00	40779,72
1340,00	42108,83
1341,00	42151,13
1342,00	42508,97
1343,00	41739,85
1344,00	41893,59
1345,00	42325,03
1346,00	42127,70
1347,00	41551,13
1348,00	41420,39
1349,00	41463,51
1350,00	41258,72
1351,00	38762,19
1352,00	36893,28
1353,00	37688,84
1354,00	37898,89
1355,00	39100,70
1356,00	40316,59
1357,00	40109,55
1358,00	40593,52
1359,00	40613,34
1360,00	39487,72
1361,00	39514,69
1362,00	39804,42
1363,00	39792,88
1364,00	39311,24
1365,00	38615,51
1366,00	38381,58
1367,00	38111,07
1368,00	37657,86
1369,00	39241,57
1370,00	39618,74
1371,00	39563,79
1372,00	40107,25
1373,00	39656,03
1374,00	39469,54
1375,00	39472,25
1376,00	37690,65
1377,00	38306,22
1378,00	37100,07
1379,00	37357,05
1380,00	38686,85
1381,00	37729,59
1382,00	38759,15
1383,00	39465,62
1384,00	39549,37
1385,00	39563,63
1386,00	39099,20
1387,00	39361,21
1388,00	39444,94
1389,00	38767,00
1390,00	37430,66
1391,00	37735,85
1392,00	37787,20
1393,00	38848,90
1394,00	38357,60
1395,00	37938,09
1396,00	37937,70
1397,00	38044,97
1398,00	38911,49
1399,00	38866,53
1400,00	38869,50
1401,00	39218,84
1402,00	38361,48
1403,00	38381,45
1404,00	38329,49
1405,00	37756,65
1406,00	37656,61
1407,00	37271,42
1408,00	37186,45
1409,00	37513,72
1410,00	37781,36
1411,00	38142,02
1412,00	37897,28
1413,00	37812,74
1414,00	37969,63
1415,00	38169,43
1416,00	38172,60
1417,00	38519,74
1418,00	37773,93
1419,00	37883,93
1420,00	37444,19
1421,00	37866,35
1422,00	37702,68
1423,00	37955,64
1424,00	38157,81
1425,00	37672,54
1426,00	38066,84
1427,00	37571,88
1428,00	35728,86
1429,00	36864,82
1430,00	37103,69
1431,00	37110,50
1432,00	35304,31
1433,00	35463,95
1434,00	36756,66
1435,00	37371,87
1436,00	37090,16
1437,00	36465,12
1438,00	35632,76
1439,00	36260,02
1440,00	35296,84
1441,00	35946,88
1442,00	35833,02
1443,00	35939,51
1444,00	36113,07
1445,00	36057,97
1446,00	35274,58
1447,00	35022,59
1448,00	36433,63
1449,00	36244,82
1450,00	36814,77
1451,00	36740,58
1452,00	36407,42
1453,00	35256,61
1454,00	35280,04
1455,00	35647,63
1456,00	36026,57
1457,00	35882,37
1458,00	34886,50
1459,00	33949,27
1460,00	35353,63
1461,00	35530,56
1462,00	35807,24
1463,00	35498,49
1464,00	35699,03
1465,00	34570,61
1466,00	33668,59
1467,00	34831,53
1468,00	35098,50
1469,00	34530,41
1470,00	33603,67
1471,00	34506,22
1472,00	34227,74
1473,00	34102,23
1474,00	32624,24
1475,00	32760,81
1476,00	33501,40
1477,00	33748,18
1478,00	33634,83
1479,00	33024,92
1480,00	33069,22
1481,00	33100,87
1482,00	32958,04
1483,00	31688,07
1484,00	32699,68
1485,00	33359,10
1486,00	32678,42
1487,00	32662,09
1488,00	31990,99
1489,00	32058,37
1490,00	32593,60
1491,00	32937,41
1492,00	32940,49
1493,00	32580,66
1494,00	32269,12
1495,00	31011,62
1496,00	29439,92
1497,00	29601,02
1498,00	30858,92
1499,00	31355,65
1500,00	32071,72
1501,00	32750,60
1502,00	32937,88
1503,00	33087,07
1504,00	33289,76
1505,00	32941,48
1506,00	33112,06
1507,00	32901,38
1508,00	32554,00
1509,00	32006,24
1510,00	30608,05
1511,00	29582,24
1512,00	30208,63
1513,00	31142,17
1514,00	31904,85
1515,00	31685,13
1516,00	31753,37
1517,00	32132,68
1518,00	31807,96
1519,00	32090,58
1520,00	32254,64
1521,00	31761,85
1522,00	31102,07
1523,00	31143,74
1524,00	31520,46
1525,00	31447,04
1526,00	31633,81
1527,00	31708,33
1528,00	31403,25
1529,00	30673,14
1530,00	30595,74
1531,00	29846,75
1532,00	30118,16
1533,00	30140,19
1534,00	30555,31
1535,00	29546,44
1536,00	29450,56
1537,00	28991,23
1538,00	28627,41
1539,00	28172,07
1540,00	27337,88
1541,00	24972,73
1542,00	19473,25
1543,00	20532,02
1544,00	24209,28
1545,00	25937,90
1546,00	26718,64
1547,00	27369,51
1548,00	28136,24
1549,00	28136,63
1550,00	28331,95
1551,00	28527,44
1552,00	29211,29
1553,00	29580,71
1554,00	29546,15
1555,00	29417,83
1556,00	29418,40
1557,00	29549,75
1558,00	28990,93
1559,00	28911,89
1560,00	29437,32
1561,00	29439,06
1562,00	29295,38
1563,00	27890,40
1564,00	28363,77
1565,00	29223,62
1566,00	28788,23
1567,00	28757,59
1568,00	29345,89
1569,00	29200,47
1570,00	29219,62
1571,00	28835,47
1572,00	28861,52
1573,00	28738,60
1574,00	28498,92
1575,00	28819,03
1576,00	28612,88
1577,00	28692,00
1578,00	28813,02
1579,00	28777,61
1580,00	28684,22
1581,00	28887,61
1582,00	28771,21
1583,00	28959,80
1584,00	28727,99
1585,00	28473,08
1586,00	28347,52
1587,00	28050,25
1588,00	28047,21
1589,00	28162,99
1590,00	27498,93
1591,00	26635,38
1592,00	27057,78
1593,00	27661,67
1594,00	27581,82
1595,00	27163,21
1596,00	27357,20
1597,00	27093,92
1598,00	26526,11
1599,00	27245,50
1600,00	27325,25
1601,00	27191,77
1602,00	27326,11
1603,00	27188,41
1604,00	27272,14
1605,00	27054,44
1606,00	27037,03
1607,00	26941,12
1608,00	26857,17
1609,00	26747,16
1610,00	26514,13
1611,00	25902,33
1612,00	25896,14
1613,00	25966,61
1614,00	25984,06
1615,00	26141,81
1616,00	26255,08
1617,00	26177,07
1618,00	26044,21
1619,00	26148,49
1620,00	26063,85
1621,00	25334,21
1622,00	25126,78
1623,00	25432,33
1624,00	25595,72
1625,00	25532,57
1626,00	25581,21
1627,00	25602,34
1628,00	25347,95
1629,00	25305,24
1630,00	25334,17
1631,00	25055,26
1632,00	25158,16
1633,00	25139,38
1634,00	24668,67
1635,00	24681,58
1636,00	24659,87
1637,00	24764,01
1638,00	24867,25
1639,00	24639,69
1640,00	24529,42
1641,00	24344,82
1642,00	24399,82
1643,00	24295,08
1644,00	24166,75
1645,00	24059,84
1646,00	23711,41
1647,00	23695,76
1648,00	23307,82
1649,00	22865,41
1650,00	23193,16
1651,00	23382,11
1652,00	23210,52
1653,00	23342,25
1654,00	23575,65
1655,00	23428,94
1656,00	23257,43
1657,00	23247,31
1658,00	23441,45
1659,00	23344,45
1660,00	23154,42
1661,00	23205,93
1662,00	22854,20
1663,00	22904,90
1664,00	22683,66
1665,00	22650,16
1666,00	22573,01
1667,00	22487,98
1668,00	22443,00
1669,00	22326,46
1670,00	22329,43
1671,00	22196,45
1672,00	21960,23
1673,00	22126,20
1674,00	22049,81
1675,00	22154,35
1676,00	22053,10
1677,00	21990,33
1678,00	22007,26
1679,00	21999,12
1680,00	21944,04
1681,00	21887,89
1682,00	21668,61
1683,00	21531,17
1684,00	21051,89
1685,00	21178,61
1686,00	21166,84
1687,00	21129,11
1688,00	20936,48
1689,00	21124,29
1690,00	21149,17
1691,00	21054,49
1692,00	21068,89
1693,00	21051,18
1694,00	21089,32
1695,00	20836,31
1696,00	20721,21
1697,00	20658,74
1698,00	20487,94
1699,00	20597,00
1700,00	20531,99
1701,00	20429,60
1702,00	20379,31
1703,00	20189,51
1704,00	19995,75
1705,00	20017,33
1706,00	20161,43
1707,00	19961,25
1708,00	20076,17
1709,00	20002,80
1710,00	19992,75
1711,00	19891,31
1712,00	19638,00
1713,00	19783,66
1714,00	19560,83
1715,00	19652,98
1716,00	19480,24
1717,00	19371,08
1718,00	19385,52
1719,00	19369,46
1720,00	19157,60
1721,00	19136,73
1722,00	18829,03
1723,00	18979,00
1724,00	19200,02
1725,00	19078,37
1726,00	18998,32
1727,00	18599,27
1728,00	18694,50
1729,00	18823,52
1730,00	18869,38
1731,00	18661,16
1732,00	18745,35
1733,00	18451,28
1734,00	18174,18
1735,00	18018,51
1736,00	17699,06
1737,00	17579,66
1738,00	17429,54
1739,00	17832,56
1740,00	17905,88
1741,00	17920,55
1742,00	17851,94
1743,00	17861,73
1744,00	17816,93
1745,00	17750,00
1746,00	17348,72
1747,00	17352,24
1748,00	17297,89
1749,00	17373,57
1750,00	17248,75
1751,00	17101,71
1752,00	17182,61
1753,00	17198,33
1754,00	16637,12
1755,00	13499,47
1756,00	11412,29
1757,00	11005,81
1758,00	10804,83
1759,00	10930,73
1760,00	11040,57
1761,00	11481,22
1762,00	11866,53
1763,00	12593,47
1764,00	13216,85
1765,00	14360,29
1766,00	14562,65
1767,00	14245,30
1768,00	13793,97
1769,00	13607,32
1770,00	13694,80
1771,00	13116,76
1772,00	13845,98
1773,00	12842,32
1774,00	13448,04
1775,00	13453,48
1776,00	12680,81
1777,00	13749,56
1778,00	13328,34
1779,00	13129,70
1780,00	13869,14
1781,00	13477,00
1782,00	12977,25
1783,00	13915,28
1784,00	13726,18
1785,00	13398,60
1786,00	14119,23
1787,00	14130,95
1788,00	13641,21
1789,00	13716,44
1790,00	13976,50
1791,00	13847,26
1792,00	13616,84
1793,00	14015,66
1794,00	14074,41
1795,00	13611,38
1796,00	13347,82
1797,00	13472,25
1798,00	13609,17
1799,00	13378,06
1800,00	12798,61
1801,00	13095,18
1802,00	13222,69
1803,00	12809,49
1804,00	13089,72
1805,00	13293,29
1806,00	12929,11
1807,00	12437,46
1808,00	12494,50
1809,00	12289,31
1810,00	12680,51
1811,00	12802,51
1812,00	12771,92
1813,00	12140,27
1814,00	12443,30
1815,00	12530,43
1816,00	12838,32
1817,00	12333,38
1818,00	12724,19
1819,00	11915,81
1820,00	12321,56
1821,00	12263,68
1822,00	12216,82
1823,00	12115,65
1824,00	12564,67
1825,00	12291,42
1826,00	12596,16
1827,00	12504,88
1828,00	12784,07
1829,00	12969,47
1830,00	12497,61
1831,00	12697,60
1832,00	12718,38
1833,00	12612,14
1834,00	12301,17
1835,00	11924,38
1836,00	11949,90
1837,00	11996,68
1838,00	11968,46
1839,00	12011,85
1840,00	11894,16
1841,00	11430,41
1842,00	11364,33
1843,00	11033,39
1844,00	11347,95
1845,00	11379,70
1846,00	11147,46
1847,00	11138,37
1848,00	11447,42
1849,00	11410,44
1850,00	10940,38
1851,00	10949,31
1852,00	11107,30
1853,00	10975,62
1854,00	10612,17
1855,00	10264,40
1856,00	10578,43
1857,00	10612,54
1858,00	10581,21
1859,00	10346,47
1860,00	10564,03
1861,00	10517,18
1862,00	10285,94
1863,00	9701,50
1864,00	10172,82
1865,00	10281,94
1866,00	10395,55
1867,00	10316,12
1868,00	9892,17
1869,00	9930,70
1870,00	10078,47
1871,00	9744,09
1872,00	9949,63
1873,00	10196,30
1874,00	10240,63
1875,00	10385,57
1876,00	10281,46
1877,00	10232,90
1878,00	9995,81
1879,00	9576,99
1880,00	9555,05
1881,00	9679,67
1882,00	9806,57
1883,00	9797,76
1884,00	9864,94
1885,00	9757,95
1886,00	9623,43
1887,00	9830,65
1888,00	9574,88
1889,00	9323,16
1890,00	9381,00
1891,00	9484,85
1892,00	9451,05
1893,00	9353,49
1894,00	9316,50
1895,00	9328,23
1896,00	9129,81
1897,00	9267,26
1898,00	9118,87
1899,00	9095,69
1900,00	8979,84
1901,00	8994,17
1902,00	8916,94
1903,00	8894,83
1904,00	8782,56
1905,00	8778,91
1906,00	8793,70
1907,00	8670,58
1908,00	8706,05
1909,00	8606,89
1910,00	8661,71
1911,00	8571,72
1912,00	8544,12
1913,00	8561,44
1914,00	8474,77
1915,00	8492,40
1916,00	8294,82
1917,00	8310,62
1918,00	8333,58
1919,00	8321,30
1920,00	8160,16
1921,00	8155,25
1922,00	7973,52
1923,00	7996,66
1924,00	8015,37
1925,00	7870,93
1926,00	7819,36
1927,00	7846,35
1928,00	7792,87
1929,00	7766,52
1930,00	7784,54
1931,00	7732,83
1932,00	7650,78
1933,00	7719,36
1934,00	7596,17
1935,00	7636,11
1936,00	7593,52
1937,00	7595,66
1938,00	7586,66
1939,00	7525,56
1940,00	7412,81
1941,00	7344,67
1942,00	7214,30
1943,00	7241,65
1944,00	7147,70
1945,00	7081,05
1946,00	7019,80
1947,00	6876,33
1948,00	6820,39
1949,00	6768,37
1950,00	6744,27
1951,00	6701,98
1952,00	6760,32
1953,00	6727,73
1954,00	6739,23
1955,00	6706,29
1956,00	6685,04
1957,00	6678,73
1958,00	6571,77
1959,00	6581,68
1960,00	6471,20
1961,00	6355,28
1962,00	6268,53
1963,00	6199,33
1964,00	6134,53
1965,00	6168,47
1966,00	6095,65
1967,00	6061,25
1968,00	5980,27
1969,00	5928,01
1970,00	5866,29
1971,00	5828,06
1972,00	5797,47
1973,00	5638,73
1974,00	5520,35
1975,00	5317,48
1976,00	5141,53
1977,00	5059,88
1978,00	4953,06
1979,00	4879,58
1980,00	4709,90
1981,00	4560,88
1982,00	4489,43
1983,00	4488,56
1984,00	4322,31
1985,00	4327,90
1986,00	4417,19
1987,00	4367,44
1988,00	4321,86
1989,00	4159,28
1990,00	4040,43
1991,00	3829,66
1992,00	3817,58
1993,00	3893,35
1994,00	4074,94
1995,00	3978,82
1996,00	3727,86
1997,00	3667,46
1998,00	3735,42
1999,00	3846,13
2000,00	3871,36
2001,00	3757,03
2002,00	3711,94
2003,00	3620,34
2004,00	3624,00
2005,00	3766,63
2006,00	3683,54
2007,00	3706,09
2008,00	3709,32
2009,00	3853,73
2010,00	3939,20
2011,00	3983,31
2012,00	4027,30
2013,00	4022,13
2014,00	4042,57
2015,00	3935,74
2016,00	3950,46
2017,00	3977,26
2018,00	3994,93
2019,00	3984,69
2020,00	3888,05
2021,00	3785,43
2022,00	3820,35
2023,00	3870,92
2024,00	3762,95
2025,00	3734,83
2026,00	3722,65
2027,00	3586,02
2028,00	3376,98
2029,00	3256,47
2030,00	3246,22
2031,00	3306,16
2032,00	3346,66
2033,00	3289,09
2034,00	3099,84
2035,00	3072,22
2036,00	3134,64
2037,00	3081,24
2038,00	3058,28
2039,00	3033,37
2040,00	3060,44
2041,00	3039,12
2042,00	2984,89
2043,00	2907,47
2044,00	2804,54
2045,00	2871,50
2046,00	2871,50
2047,00	2871,50
>>>>>End Processed Spectral Data<<<<<
