SpectraSuite Datei
++++++++++++++++++++++++++++++++++++
Datum: Thu Sep 19 18:33:43 CEST 2024
Benutzer: Student
Dark-Spektrum vorhanden: Nein
Referenz-Spektrum vorhanden: Nein
Zahl der probierten Teilspektren: 1
Spektrometer: USB2+H15728
Integrationszeit (usec): 1000 (USB2+H15728)
Spektren Durchschnitt berechnet: 100 (USB2+H15728)
Boxcar Glättung: 0 (USB2+H15728)
Dunkelstromkorrektur: Nein (USB2+H15728)
Puls/Lampe aktiviert: Nein (USB2+H15728)
Correct for Detector Non-linearity: Nein (USB2+H15728)
Streulichtkorrektur: Nein (USB2+H15728)
Anzahl Pixel in verarbeitetem Spektrum: 2048
>>>>>Begin Processed Spectral Data<<<<<
0,00	799,95
1,00	799,95
2,00	799,95
3,00	763,34
4,00	763,83
5,00	767,09
6,00	774,37
7,00	781,32
8,00	788,99
9,00	799,62
10,00	818,30
11,00	830,59
12,00	841,89
13,00	857,24
14,00	877,49
15,00	893,43
16,00	907,75
17,00	932,63
18,00	952,39
19,00	963,15
20,00	982,88
21,00	1001,98
22,00	1014,25
23,00	1088,58
24,00	1274,87
25,00	1300,68
26,00	1331,02
27,00	1339,93
28,00	1349,20
29,00	1361,84
30,00	1366,38
31,00	1385,32
32,00	1392,99
33,00	1395,19
34,00	1402,61
35,00	1407,55
36,00	1408,84
37,00	1419,49
38,00	1419,25
39,00	1427,52
40,00	1435,66
41,00	1425,53
42,00	1438,61
43,00	1437,65
44,00	1430,63
45,00	1444,84
46,00	1445,14
47,00	1441,61
48,00	1440,53
49,00	1437,14
50,00	1441,44
51,00	1438,17
52,00	1440,34
53,00	1437,04
54,00	1443,97
55,00	1443,46
56,00	1442,99
57,00	1442,31
58,00	1441,42
59,00	1447,39
60,00	1439,57
61,00	1448,98
62,00	1466,18
63,00	1460,70
64,00	1464,92
65,00	1486,29
66,00	1490,92
67,00	1484,37
68,00	1494,36
69,00	1485,28
70,00	1485,89
71,00	1484,98
72,00	1474,70
73,00	1469,46
74,00	1475,82
75,00	1491,72
76,00	1488,46
77,00	1503,63
78,00	1506,63
79,00	1518,70
80,00	1530,08
81,00	1537,69
82,00	1538,41
83,00	1548,90
84,00	1549,39
85,00	1550,56
86,00	1560,81
87,00	1563,22
88,00	1559,92
89,00	1566,97
90,00	1559,43
91,00	1576,14
92,00	1585,97
93,00	1597,42
94,00	1592,10
95,00	1597,06
96,00	1586,42
97,00	1607,01
98,00	1605,91
99,00	1614,29
100,00	1608,93
101,00	1616,33
102,00	1613,12
103,00	1628,29
104,00	1637,81
105,00	1641,82
106,00	1655,84
107,00	1653,35
108,00	1659,42
109,00	1652,93
110,00	1658,85
111,00	1650,26
112,00	1639,22
113,00	1656,56
114,00	1653,57
115,00	1669,46
116,00	1653,96
117,00	1661,94
118,00	1670,65
119,00	1668,78
120,00	1669,97
121,00	1697,50
122,00	1702,95
123,00	1687,67
124,00	1697,43
125,00	1680,41
126,00	1689,75
127,00	1707,09
128,00	1714,56
129,00	1728,63
130,00	1744,45
131,00	1759,83
132,00	1757,18
133,00	1763,45
134,00	1763,62
135,00	1757,37
136,00	1776,09
137,00	1771,25
138,00	1769,56
139,00	1752,22
140,00	1735,11
141,00	1750,91
142,00	1782,74
143,00	1788,33
144,00	1785,57
145,00	1780,21
146,00	1795,14
147,00	1806,36
148,00	1808,70
149,00	1819,88
150,00	1830,28
151,00	1833,22
152,00	1816,58
153,00	1820,98
154,00	1839,82
155,00	1835,05
156,00	1839,36
157,00	1849,26
158,00	1834,25
159,00	1856,86
160,00	1868,99
161,00	1880,67
162,00	1882,09
163,00	1847,06
164,00	1845,75
165,00	1830,95
166,00	1871,45
167,00	1876,50
168,00	1901,87
169,00	1896,11
170,00	1890,66
171,00	1905,85
172,00	1901,85
173,00	1891,57
174,00	1902,76
175,00	1898,81
176,00	1917,48
177,00	1902,11
178,00	1849,40
179,00	1827,75
180,00	1810,66
181,00	1812,93
182,00	1806,64
183,00	1804,48
184,00	1802,10
185,00	1813,75
186,00	1880,01
187,00	1925,93
188,00	2040,41
189,00	2078,56
190,00	2095,79
191,00	2082,26
192,00	2058,85
193,00	2034,91
194,00	2084,50
195,00	2118,35
196,00	2165,51
197,00	2167,57
198,00	2161,18
199,00	2138,90
200,00	2096,82
201,00	2079,19
202,00	2069,60
203,00	2135,15
204,00	2184,82
205,00	2227,77
206,00	2228,38
207,00	2252,41
208,00	2225,43
209,00	2244,08
210,00	2290,00
211,00	2345,61
212,00	2362,23
213,00	2366,14
214,00	2425,68
215,00	2403,40
216,00	2387,00
217,00	2377,70
218,00	2412,09
219,00	2388,31
220,00	2384,40
221,00	2384,26
222,00	2424,23
223,00	2364,41
224,00	2322,37
225,00	2259,55
226,00	2326,16
227,00	2385,68
228,00	2420,72
229,00	2418,08
230,00	2460,44
231,00	2486,26
232,00	2540,21
233,00	2510,97
234,00	2518,35
235,00	2517,27
236,00	2473,36
237,00	2495,67
238,00	2557,74
239,00	2613,23
240,00	2647,03
241,00	2622,62
242,00	2618,83
243,00	2640,64
244,00	2723,73
245,00	2745,00
246,00	2727,71
247,00	2734,24
248,00	2731,78
249,00	2772,67
250,00	2778,68
251,00	2755,65
252,00	2728,11
253,00	2761,95
254,00	2816,51
255,00	2862,33
256,00	2833,01
257,00	2855,66
258,00	2854,47
259,00	2910,50
260,00	2887,21
261,00	2893,11
262,00	2905,75
263,00	2878,20
264,00	2833,17
265,00	2811,78
266,00	2833,83
267,00	2832,31
268,00	2896,20
269,00	2956,42
270,00	2938,19
271,00	2977,44
272,00	3001,50
273,00	3059,48
274,00	3129,30
275,00	3073,47
276,00	3095,50
277,00	3103,08
278,00	3044,97
279,00	3070,55
280,00	3161,69
281,00	3196,98
282,00	3157,27
283,00	3140,46
284,00	3208,10
285,00	3185,96
286,00	3200,64
287,00	3290,54
288,00	3288,83
289,00	3303,13
290,00	3348,89
291,00	3443,54
292,00	3455,36
293,00	3426,61
294,00	3458,26
295,00	3402,95
296,00	3441,36
297,00	3425,07
298,00	3434,22
299,00	3490,32
300,00	3429,33
301,00	3452,38
302,00	3441,85
303,00	3290,49
304,00	3331,92
305,00	3353,78
306,00	3364,68
307,00	3366,23
308,00	3446,84
309,00	3571,77
310,00	3608,80
311,00	3588,11
312,00	3594,57
313,00	3592,72
314,00	3602,88
315,00	3590,36
316,00	3626,43
317,00	3642,67
318,00	3664,09
319,00	3690,21
320,00	3794,10
321,00	3823,92
322,00	3871,78
323,00	3892,38
324,00	3847,30
325,00	3906,54
326,00	3960,58
327,00	3962,18
328,00	4013,74
329,00	4061,11
330,00	4092,22
331,00	4062,40
332,00	4067,10
333,00	4012,43
334,00	3986,54
335,00	4002,36
336,00	4095,61
337,00	4151,78
338,00	4160,75
339,00	4065,14
340,00	4214,32
341,00	4180,06
342,00	4216,64
343,00	4224,95
344,00	4256,08
345,00	4326,85
346,00	4401,47
347,00	4531,79
348,00	4516,46
349,00	4483,34
350,00	4495,70
351,00	4643,18
352,00	4691,77
353,00	4660,94
354,00	4740,47
355,00	4799,22
356,00	4836,44
357,00	4785,37
358,00	4855,16
359,00	4873,63
360,00	4887,51
361,00	4948,74
362,00	5010,55
363,00	4921,49
364,00	5043,13
365,00	5047,08
366,00	5100,57
367,00	5256,09
368,00	4954,70
369,00	4977,29
370,00	4994,33
371,00	5112,06
372,00	5192,06
373,00	5204,34
374,00	5221,03
375,00	5243,64
376,00	5506,32
377,00	5327,46
378,00	5329,14
379,00	5176,52
380,00	5104,38
381,00	5143,96
382,00	5369,40
383,00	5469,27
384,00	5342,88
385,00	5544,52
386,00	5568,72
387,00	5498,50
388,00	5597,44
389,00	5561,07
390,00	5762,52
391,00	5717,25
392,00	5740,98
393,00	5759,36
394,00	5726,26
395,00	5807,15
396,00	5847,88
397,00	5924,74
398,00	5695,48
399,00	5745,73
400,00	5669,41
401,00	5748,85
402,00	5712,71
403,00	5735,25
404,00	5975,01
405,00	6172,95
406,00	6010,24
407,00	6141,03
408,00	6338,24
409,00	6445,34
410,00	6410,82
411,00	6556,38
412,00	6610,82
413,00	6405,34
414,00	6278,28
415,00	6232,07
416,00	6388,12
417,00	6592,54
418,00	6573,75
419,00	6540,00
420,00	6818,17
421,00	6753,90
422,00	6953,33
423,00	7031,41
424,00	6972,06
425,00	7188,79
426,00	7188,77
427,00	7092,67
428,00	7016,36
429,00	7014,09
430,00	7037,87
431,00	7329,48
432,00	7235,42
433,00	7053,81
434,00	7084,22
435,00	7105,19
436,00	7337,23
437,00	7472,14
438,00	7438,36
439,00	7630,01
440,00	7872,32
441,00	7845,01
442,00	7995,50
443,00	8068,44
444,00	8093,41
445,00	7789,86
446,00	7883,72
447,00	7884,56
448,00	8013,85
449,00	8105,16
450,00	8269,39
451,00	8515,13
452,00	8594,47
453,00	8405,92
454,00	8402,15
455,00	8534,60
456,00	8589,41
457,00	8635,08
458,00	8678,82
459,00	8686,45
460,00	8748,55
461,00	8776,59
462,00	9036,15
463,00	9100,89
464,00	8977,27
465,00	9321,25
466,00	9194,37
467,00	8998,59
468,00	9147,05
469,00	9445,35
470,00	9326,24
471,00	9383,42
472,00	9387,21
473,00	9529,30
474,00	9538,74
475,00	9654,43
476,00	9465,95
477,00	9503,14
478,00	9638,68
479,00	9875,96
480,00	10027,00
481,00	9973,63
482,00	10022,06
483,00	10175,29
484,00	9958,93
485,00	9316,55
486,00	9442,96
487,00	9204,70
488,00	7938,39
489,00	7826,68
490,00	8792,64
491,00	9523,83
492,00	9831,19
493,00	10060,37
494,00	9401,96
495,00	9824,70
496,00	10299,60
497,00	10655,48
498,00	10650,23
499,00	11254,89
500,00	11230,87
501,00	11300,36
502,00	10911,98
503,00	10974,51
504,00	11058,49
505,00	10639,47
506,00	10968,22
507,00	12110,80
508,00	12341,48
509,00	12600,91
510,00	12245,80
511,00	12379,19
512,00	12344,76
513,00	12491,28
514,00	12808,28
515,00	12618,20
516,00	12118,90
517,00	12366,48
518,00	12855,09
519,00	13201,82
520,00	12710,00
521,00	11744,62
522,00	11591,53
523,00	12451,46
524,00	12616,28
525,00	13496,30
526,00	13601,34
527,00	13931,95
528,00	13799,70
529,00	13619,09
530,00	13779,88
531,00	13810,17
532,00	13250,76
533,00	13586,88
534,00	14545,10
535,00	14759,51
536,00	14842,55
537,00	14834,46
538,00	15302,14
539,00	15399,72
540,00	15529,01
541,00	15368,43
542,00	15126,58
543,00	13498,78
544,00	15258,14
545,00	16057,41
546,00	16305,65
547,00	16127,25
548,00	15639,62
549,00	15888,28
550,00	15887,81
551,00	16390,33
552,00	16779,63
553,00	16990,02
554,00	16919,01
555,00	16597,86
556,00	16345,69
557,00	15464,34
558,00	15093,41
559,00	16141,27
560,00	17555,96
561,00	17296,00
562,00	17199,59
563,00	17716,22
564,00	17604,69
565,00	18087,07
566,00	17766,54
567,00	17328,37
568,00	17002,96
569,00	17532,34
570,00	16812,77
571,00	16471,80
572,00	17784,47
573,00	18020,30
574,00	17366,45
575,00	16966,33
576,00	17410,00
577,00	17137,52
578,00	17585,08
579,00	18392,09
580,00	18021,68
581,00	18417,96
582,00	18815,85
583,00	18527,05
584,00	19240,07
585,00	19923,62
586,00	20132,21
587,00	19694,65
588,00	18607,14
589,00	19070,19
590,00	18166,68
591,00	17691,27
592,00	19690,06
593,00	20539,14
594,00	20756,88
595,00	20116,06
596,00	19786,02
597,00	20323,32
598,00	21247,92
599,00	21527,99
600,00	21511,51
601,00	21913,66
602,00	22178,71
603,00	22277,80
604,00	21344,45
605,00	21195,82
606,00	21247,22
607,00	21814,14
608,00	21730,63
609,00	21275,52
610,00	21690,66
611,00	21940,13
612,00	21903,41
613,00	20112,93
614,00	21389,73
615,00	21766,58
616,00	22443,56
617,00	22730,65
618,00	22970,74
619,00	23070,12
620,00	23817,92
621,00	23916,32
622,00	23505,06
623,00	22161,41
624,00	21677,57
625,00	23218,96
626,00	24019,35
627,00	23832,90
628,00	23227,52
629,00	23066,24
630,00	23064,79
631,00	23945,23
632,00	24710,30
633,00	24607,11
634,00	24828,61
635,00	25493,98
636,00	25258,73
637,00	24534,97
638,00	24137,27
639,00	23564,00
640,00	23808,23
641,00	24266,46
642,00	24493,66
643,00	24627,75
644,00	24777,52
645,00	25202,40
646,00	24277,84
647,00	23547,59
648,00	24561,84
649,00	24076,93
650,00	25052,28
651,00	25183,30
652,00	24503,40
653,00	25199,47
654,00	25449,60
655,00	25065,80
656,00	25493,96
657,00	26151,67
658,00	26687,37
659,00	26517,90
660,00	26212,20
661,00	25384,14
662,00	24359,80
663,00	21244,25
664,00	20457,48
665,00	23201,24
666,00	20678,49
667,00	20023,07
668,00	25237,32
669,00	26512,96
670,00	26881,33
671,00	26547,43
672,00	23308,30
673,00	19307,59
674,00	23602,13
675,00	26107,41
676,00	26205,27
677,00	26468,39
678,00	24659,25
679,00	26793,38
680,00	26109,94
681,00	27429,21
682,00	27992,55
683,00	28591,24
684,00	28215,88
685,00	26911,64
686,00	26589,12
687,00	26357,85
688,00	26997,66
689,00	28718,30
690,00	28986,32
691,00	28138,41
692,00	27196,72
693,00	27890,74
694,00	29546,13
695,00	29476,50
696,00	29533,23
697,00	27788,15
698,00	25295,39
699,00	27645,59
700,00	28913,25
701,00	28941,15
702,00	28128,21
703,00	28761,42
704,00	30211,85
705,00	30704,41
706,00	30770,04
707,00	30504,30
708,00	30591,15
709,00	31183,19
710,00	30045,48
711,00	30358,41
712,00	29789,73
713,00	30721,80
714,00	30334,89
715,00	30763,16
716,00	31696,96
717,00	32143,12
718,00	30649,76
719,00	28444,41
720,00	27270,45
721,00	26090,40
722,00	28331,69
723,00	25703,79
724,00	28030,65
725,00	29342,78
726,00	29302,80
727,00	29855,71
728,00	32205,63
729,00	32197,04
730,00	30481,31
731,00	30063,20
732,00	31297,41
733,00	33117,15
734,00	33370,16
735,00	33834,69
736,00	33994,03
737,00	33552,96
738,00	33311,93
739,00	31964,16
740,00	30534,39
741,00	32337,08
742,00	32387,28
743,00	33249,32
744,00	34179,31
745,00	33979,08
746,00	34223,01
747,00	35371,35
748,00	34788,48
749,00	34243,47
750,00	34038,15
751,00	33417,40
752,00	34114,83
753,00	34451,87
754,00	32988,14
755,00	31842,26
756,00	32077,58
757,00	30485,13
758,00	29323,38
759,00	33775,17
760,00	33884,97
761,00	34185,65
762,00	34747,59
763,00	34739,64
764,00	33124,88
765,00	32478,26
766,00	33890,58
767,00	34867,59
768,00	34465,61
769,00	34288,71
770,00	33647,19
771,00	35202,83
772,00	35565,52
773,00	35921,42
774,00	36700,91
775,00	36843,89
776,00	36408,88
777,00	35974,31
778,00	35117,80
779,00	34712,65
780,00	34685,38
781,00	34928,96
782,00	33328,01
783,00	31818,09
784,00	35592,34
785,00	36342,88
786,00	36152,57
787,00	36276,10
788,00	36578,34
789,00	36295,11
790,00	34986,37
791,00	36900,16
792,00	36886,40
793,00	36511,02
794,00	35828,92
795,00	35242,55
796,00	35092,59
797,00	35547,68
798,00	34626,00
799,00	34812,33
800,00	35376,12
801,00	36347,44
802,00	34871,83
803,00	33133,79
804,00	34120,54
805,00	35635,48
806,00	34398,97
807,00	35898,95
808,00	36203,99
809,00	35608,23
810,00	37435,21
811,00	37646,23
812,00	36873,78
813,00	36904,94
814,00	36052,32
815,00	36512,54
816,00	37929,69
817,00	36542,74
818,00	35463,87
819,00	36776,39
820,00	35980,26
821,00	35836,27
822,00	37667,43
823,00	38895,56
824,00	39180,94
825,00	38923,27
826,00	37998,46
827,00	36639,45
828,00	35707,59
829,00	38198,88
830,00	39582,48
831,00	38887,39
832,00	38424,95
833,00	36177,54
834,00	38403,21
835,00	39507,99
836,00	39142,37
837,00	37618,05
838,00	37305,42
839,00	38411,14
840,00	39025,81
841,00	39432,60
842,00	39094,27
843,00	39420,52
844,00	38134,72
845,00	37724,17
846,00	35996,67
847,00	38327,42
848,00	38094,16
849,00	38426,70
850,00	39508,48
851,00	40330,38
852,00	39126,67
853,00	39346,63
854,00	39823,19
855,00	40075,47
856,00	39195,73
857,00	39729,77
858,00	38983,59
859,00	40410,94
860,00	39899,14
861,00	38915,85
862,00	39221,13
863,00	39532,28
864,00	39261,76
865,00	40048,98
866,00	39357,49
867,00	38621,20
868,00	39058,42
869,00	39945,85
870,00	40499,23
871,00	40879,80
872,00	40715,00
873,00	40724,10
874,00	40873,38
875,00	39640,97
876,00	38401,24
877,00	37680,57
878,00	39728,14
879,00	40289,96
880,00	40199,73
881,00	39402,10
882,00	40576,93
883,00	40527,57
884,00	41187,69
885,00	40381,03
886,00	40285,60
887,00	40855,31
888,00	40734,29
889,00	41385,33
890,00	41763,47
891,00	41276,40
892,00	40664,84
893,00	40682,63
894,00	41071,46
895,00	40708,42
896,00	40794,53
897,00	40405,63
898,00	40075,26
899,00	39852,49
900,00	39962,77
901,00	39803,22
902,00	39560,02
903,00	39339,58
904,00	39262,95
905,00	40097,05
906,00	40510,39
907,00	41014,00
908,00	41051,97
909,00	40004,79
910,00	40746,29
911,00	39254,88
912,00	37051,36
913,00	37352,73
914,00	38783,33
915,00	39046,31
916,00	39128,02
917,00	39415,82
918,00	40661,92
919,00	39070,89
920,00	39087,63
921,00	38655,94
922,00	38964,89
923,00	41933,08
924,00	41542,03
925,00	41988,70
926,00	42015,17
927,00	41916,16
928,00	40593,90
929,00	38133,53
930,00	38760,42
931,00	40501,47
932,00	40572,20
933,00	40803,35
934,00	40233,22
935,00	39113,91
936,00	41092,93
937,00	41171,40
938,00	41446,77
939,00	41627,22
940,00	41336,60
941,00	40369,65
942,00	40359,10
943,00	39963,06
944,00	40518,63
945,00	39951,75
946,00	40564,39
947,00	40499,39
948,00	41270,20
949,00	41397,62
950,00	40895,97
951,00	40516,83
952,00	40891,34
953,00	39639,06
954,00	39568,54
955,00	38670,42
956,00	38424,22
957,00	39787,07
958,00	39688,60
959,00	40615,50
960,00	40426,58
961,00	40539,09
962,00	40894,05
963,00	41520,80
964,00	41514,62
965,00	42017,20
966,00	40808,48
967,00	41224,16
968,00	41079,51
969,00	40359,96
970,00	39596,74
971,00	39141,34
972,00	39570,36
973,00	39204,63
974,00	39181,78
975,00	40017,54
976,00	40422,08
977,00	40447,15
978,00	40407,83
979,00	40668,21
980,00	39873,88
981,00	39818,18
982,00	39524,51
983,00	40028,57
984,00	39517,77
985,00	38566,55
986,00	37889,18
987,00	37952,89
988,00	38257,16
989,00	39949,69
990,00	39843,10
991,00	40743,44
992,00	40402,89
993,00	40578,45
994,00	41132,55
995,00	41310,01
996,00	41334,19
997,00	41136,30
998,00	40738,36
999,00	40756,33
1000,00	40872,10
1001,00	40838,23
1002,00	41401,78
1003,00	40845,91
1004,00	40871,44
1005,00	41111,14
1006,00	40888,27
1007,00	40742,13
1008,00	40784,02
1009,00	40766,40
1010,00	39906,98
1011,00	40498,34
1012,00	40292,39
1013,00	38911,41
1014,00	38694,02
1015,00	40097,19
1016,00	40464,84
1017,00	40237,02
1018,00	39893,89
1019,00	39117,23
1020,00	39684,79
1021,00	41031,81
1022,00	41129,49
1023,00	40796,45
1024,00	40663,65
1025,00	40510,11
1026,00	40121,77
1027,00	40542,76
1028,00	40797,11
1029,00	40222,55
1030,00	39707,28
1031,00	38805,33
1032,00	38899,00
1033,00	39061,93
1034,00	39647,90
1035,00	39890,57
1036,00	40383,35
1037,00	39773,92
1038,00	40012,11
1039,00	40573,44
1040,00	40763,57
1041,00	40687,19
1042,00	40843,17
1043,00	41312,12
1044,00	41066,76
1045,00	40757,48
1046,00	40473,20
1047,00	40680,90
1048,00	40835,89
1049,00	41391,60
1050,00	41301,65
1051,00	41001,60
1052,00	40343,42
1053,00	40995,19
1054,00	41640,26
1055,00	41758,93
1056,00	41414,54
1057,00	41726,02
1058,00	41735,38
1059,00	41914,62
1060,00	41814,84
1061,00	41376,01
1062,00	41336,97
1063,00	41411,43
1064,00	41879,37
1065,00	41472,82
1066,00	41555,21
1067,00	41752,86
1068,00	41905,07
1069,00	41856,53
1070,00	41575,12
1071,00	41357,50
1072,00	41612,67
1073,00	41327,85
1074,00	41282,35
1075,00	40512,73
1076,00	40265,15
1077,00	39847,85
1078,00	39194,31
1079,00	39572,82
1080,00	40577,07
1081,00	40445,91
1082,00	40932,69
1083,00	40791,91
1084,00	40536,56
1085,00	41057,14
1086,00	41161,71
1087,00	40930,49
1088,00	40843,40
1089,00	40648,15
1090,00	40539,41
1091,00	40398,02
1092,00	39756,83
1093,00	39481,37
1094,00	39203,69
1095,00	38531,79
1096,00	37716,98
1097,00	35648,00
1098,00	32227,07
1099,00	32801,18
1100,00	35446,13
1101,00	35153,37
1102,00	32700,28
1103,00	34792,60
1104,00	36330,26
1105,00	37533,44
1106,00	38058,75
1107,00	39034,66
1108,00	38422,05
1109,00	38915,88
1110,00	38790,14
1111,00	38699,33
1112,00	38670,33
1113,00	38324,61
1114,00	38000,12
1115,00	37640,94
1116,00	38044,47
1117,00	37555,04
1118,00	38520,35
1119,00	37896,95
1120,00	37791,11
1121,00	39291,70
1122,00	38569,73
1123,00	38416,31
1124,00	38182,21
1125,00	38392,67
1126,00	38955,92
1127,00	39081,24
1128,00	39585,83
1129,00	38742,19
1130,00	37807,91
1131,00	36983,11
1132,00	37697,32
1133,00	37293,37
1134,00	37227,09
1135,00	36752,33
1136,00	37098,08
1137,00	38039,49
1138,00	38171,63
1139,00	38133,15
1140,00	37988,49
1141,00	37838,13
1142,00	38355,67
1143,00	39020,69
1144,00	39186,30
1145,00	38918,12
1146,00	38345,21
1147,00	37972,97
1148,00	38140,67
1149,00	38552,27
1150,00	39244,70
1151,00	38502,51
1152,00	37412,43
1153,00	37221,31
1154,00	38256,71
1155,00	38508,86
1156,00	38332,76
1157,00	37906,78
1158,00	37333,28
1159,00	37697,86
1160,00	37907,50
1161,00	38153,68
1162,00	37885,97
1163,00	38384,62
1164,00	38314,52
1165,00	38153,96
1166,00	37789,63
1167,00	38029,31
1168,00	37937,21
1169,00	37845,50
1170,00	37702,54
1171,00	37640,38
1172,00	37457,79
1173,00	37324,78
1174,00	37958,20
1175,00	37781,84
1176,00	37352,19
1177,00	37173,14
1178,00	37275,58
1179,00	37157,15
1180,00	36621,73
1181,00	36437,30
1182,00	36994,13
1183,00	36885,98
1184,00	37729,88
1185,00	37485,04
1186,00	37893,37
1187,00	38209,43
1188,00	38125,76
1189,00	38317,80
1190,00	38194,22
1191,00	38155,81
1192,00	38381,04
1193,00	37990,17
1194,00	37746,64
1195,00	37704,70
1196,00	38258,72
1197,00	37724,36
1198,00	38163,11
1199,00	38106,59
1200,00	37802,30
1201,00	37199,61
1202,00	37335,80
1203,00	36900,72
1204,00	37285,39
1205,00	37976,81
1206,00	37569,69
1207,00	37376,23
1208,00	36781,89
1209,00	36747,07
1210,00	36819,86
1211,00	37703,64
1212,00	37384,86
1213,00	37636,75
1214,00	37745,02
1215,00	37143,72
1216,00	37072,66
1217,00	36608,79
1218,00	36190,21
1219,00	36654,59
1220,00	36527,01
1221,00	36583,84
1222,00	36267,33
1223,00	36241,11
1224,00	36615,29
1225,00	36214,88
1226,00	35718,68
1227,00	36397,81
1228,00	36292,09
1229,00	35961,86
1230,00	35986,46
1231,00	35971,69
1232,00	34629,02
1233,00	33852,06
1234,00	35260,80
1235,00	35898,18
1236,00	36228,29
1237,00	35763,41
1238,00	36104,85
1239,00	35842,00
1240,00	36071,03
1241,00	35941,17
1242,00	35523,41
1243,00	36028,43
1244,00	35180,87
1245,00	34374,32
1246,00	34224,90
1247,00	35268,01
1248,00	35007,74
1249,00	35437,23
1250,00	35124,84
1251,00	35234,64
1252,00	35260,76
1253,00	34925,87
1254,00	33939,45
1255,00	32868,45
1256,00	33520,45
1257,00	34239,30
1258,00	34169,97
1259,00	34532,24
1260,00	34727,75
1261,00	35007,46
1262,00	34376,99
1263,00	34314,15
1264,00	34852,78
1265,00	34462,24
1266,00	34336,48
1267,00	33708,37
1268,00	34568,59
1269,00	34092,90
1270,00	32691,88
1271,00	31940,78
1272,00	31646,24
1273,00	33476,24
1274,00	33149,97
1275,00	32915,59
1276,00	32431,82
1277,00	32900,89
1278,00	33577,28
1279,00	33964,05
1280,00	34102,94
1281,00	33571,47
1282,00	34175,36
1283,00	34092,13
1284,00	34093,58
1285,00	34401,66
1286,00	34090,65
1287,00	33810,93
1288,00	33504,46
1289,00	33537,72
1290,00	32727,92
1291,00	33296,20
1292,00	33452,81
1293,00	33971,89
1294,00	34085,57
1295,00	33874,53
1296,00	33545,61
1297,00	33737,77
1298,00	34059,50
1299,00	34099,08
1300,00	33896,90
1301,00	33840,03
1302,00	33896,57
1303,00	33728,80
1304,00	33133,51
1305,00	32506,34
1306,00	32861,33
1307,00	33112,31
1308,00	32782,64
1309,00	32674,30
1310,00	32780,30
1311,00	33172,04
1312,00	33228,14
1313,00	33285,30
1314,00	32504,35
1315,00	31957,00
1316,00	31451,98
1317,00	31850,17
1318,00	32754,44
1319,00	32913,99
1320,00	32341,90
1321,00	32198,42
1322,00	32132,79
1323,00	32035,90
1324,00	31957,98
1325,00	31189,98
1326,00	31103,64
1327,00	31646,97
1328,00	31982,62
1329,00	31262,98
1330,00	30128,48
1331,00	30375,75
1332,00	30644,17
1333,00	30641,85
1334,00	30813,69
1335,00	31467,22
1336,00	31881,82
1337,00	31733,76
1338,00	31490,06
1339,00	31309,86
1340,00	31752,60
1341,00	31554,82
1342,00	31352,97
1343,00	31724,96
1344,00	31160,72
1345,00	30445,88
1346,00	29081,06
1347,00	28182,60
1348,00	28589,18
1349,00	29221,75
1350,00	29934,05
1351,00	30707,55
1352,00	30623,64
1353,00	30821,60
1354,00	30258,35
1355,00	30194,03
1356,00	30630,26
1357,00	30043,35
1358,00	30241,08
1359,00	29767,96
1360,00	29440,92
1361,00	29182,24
1362,00	29119,75
1363,00	29350,13
1364,00	30286,30
1365,00	30536,90
1366,00	30675,06
1367,00	30277,43
1368,00	29976,97
1369,00	30191,79
1370,00	30022,24
1371,00	29049,25
1372,00	29032,47
1373,00	28840,41
1374,00	29188,05
1375,00	29919,58
1376,00	29729,16
1377,00	30097,21
1378,00	30217,09
1379,00	30219,34
1380,00	30071,48
1381,00	29907,30
1382,00	30047,00
1383,00	30065,54
1384,00	29407,26
1385,00	29139,13
1386,00	29310,62
1387,00	29525,25
1388,00	29949,10
1389,00	29516,33
1390,00	29468,63
1391,00	29645,67
1392,00	29690,98
1393,00	30058,92
1394,00	29888,69
1395,00	30082,25
1396,00	29921,74
1397,00	29568,08
1398,00	29794,36
1399,00	29452,20
1400,00	29022,08
1401,00	29260,32
1402,00	28899,69
1403,00	28932,02
1404,00	29446,56
1405,00	29607,38
1406,00	29773,91
1407,00	29389,03
1408,00	29532,41
1409,00	29491,41
1410,00	29825,54
1411,00	29824,53
1412,00	29396,10
1413,00	29456,72
1414,00	29664,35
1415,00	29092,72
1416,00	29225,36
1417,00	29428,70
1418,00	29584,51
1419,00	29563,31
1420,00	29496,60
1421,00	29111,51
1422,00	28822,83
1423,00	28167,22
1424,00	29015,74
1425,00	28824,84
1426,00	28560,08
1427,00	27639,67
1428,00	28030,28
1429,00	28563,69
1430,00	28839,61
1431,00	28356,18
1432,00	27942,67
1433,00	27788,95
1434,00	28085,33
1435,00	27682,57
1436,00	28245,09
1437,00	28250,31
1438,00	28015,84
1439,00	27940,15
1440,00	27794,59
1441,00	27463,82
1442,00	27492,45
1443,00	28283,31
1444,00	28059,42
1445,00	28482,52
1446,00	28255,46
1447,00	27698,13
1448,00	27299,38
1449,00	27647,27
1450,00	27702,21
1451,00	27911,59
1452,00	27487,42
1453,00	26908,13
1454,00	26968,28
1455,00	27606,34
1456,00	27632,04
1457,00	27570,50
1458,00	27357,19
1459,00	27139,12
1460,00	26458,12
1461,00	26358,88
1462,00	26819,47
1463,00	26840,44
1464,00	26547,06
1465,00	26121,01
1466,00	26702,49
1467,00	26428,88
1468,00	25817,26
1469,00	25352,54
1470,00	25410,54
1471,00	26054,35
1472,00	26157,71
1473,00	25741,40
1474,00	25327,55
1475,00	25382,29
1476,00	25106,88
1477,00	24866,44
1478,00	24451,01
1479,00	25070,37
1480,00	25125,30
1481,00	24760,04
1482,00	24681,63
1483,00	24346,70
1484,00	24629,08
1485,00	25025,31
1486,00	25257,63
1487,00	25154,04
1488,00	24536,47
1489,00	23936,75
1490,00	23009,62
1491,00	22462,40
1492,00	22658,38
1493,00	23891,23
1494,00	23830,87
1495,00	24641,02
1496,00	24798,26
1497,00	24910,09
1498,00	25120,53
1499,00	25051,13
1500,00	24991,14
1501,00	24765,44
1502,00	24728,88
1503,00	24416,75
1504,00	23645,10
1505,00	22942,09
1506,00	22608,08
1507,00	23021,44
1508,00	23602,59
1509,00	23869,02
1510,00	23995,15
1511,00	23720,95
1512,00	23927,11
1513,00	23924,28
1514,00	24111,17
1515,00	23876,81
1516,00	23531,11
1517,00	23335,82
1518,00	23411,79
1519,00	23866,35
1520,00	23732,61
1521,00	23768,44
1522,00	23544,57
1523,00	23101,60
1524,00	22733,51
1525,00	22665,68
1526,00	22218,14
1527,00	22251,33
1528,00	22375,64
1529,00	22289,23
1530,00	21873,97
1531,00	21554,86
1532,00	21164,83
1533,00	20927,24
1534,00	20381,71
1535,00	19155,74
1536,00	16761,75
1537,00	14925,71
1538,00	16475,01
1539,00	18758,90
1540,00	19778,32
1541,00	20047,55
1542,00	20180,82
1543,00	20353,49
1544,00	20420,31
1545,00	20359,34
1546,00	20899,74
1547,00	21528,18
1548,00	21524,48
1549,00	21413,02
1550,00	21453,42
1551,00	21266,86
1552,00	21235,75
1553,00	21165,07
1554,00	21310,23
1555,00	21416,65
1556,00	21195,07
1557,00	20659,32
1558,00	20284,39
1559,00	20765,94
1560,00	21003,92
1561,00	20813,96
1562,00	20810,17
1563,00	20905,71
1564,00	20786,23
1565,00	20868,75
1566,00	20689,61
1567,00	20648,74
1568,00	20382,16
1569,00	20330,76
1570,00	20455,14
1571,00	20533,31
1572,00	20569,80
1573,00	20410,55
1574,00	20504,36
1575,00	20386,49
1576,00	20469,69
1577,00	20326,20
1578,00	20222,04
1579,00	19943,61
1580,00	20001,19
1581,00	19854,09
1582,00	19809,08
1583,00	19690,88
1584,00	19551,45
1585,00	19166,11
1586,00	18745,58
1587,00	19120,02
1588,00	19306,82
1589,00	19220,39
1590,00	19106,17
1591,00	18964,21
1592,00	18876,30
1593,00	18713,75
1594,00	18807,42
1595,00	18986,00
1596,00	18706,22
1597,00	18826,61
1598,00	18739,80
1599,00	18792,07
1600,00	18539,24
1601,00	18578,00
1602,00	18575,19
1603,00	18495,50
1604,00	18374,75
1605,00	18075,44
1606,00	17700,96
1607,00	17833,45
1608,00	17777,89
1609,00	17913,10
1610,00	17924,10
1611,00	17743,72
1612,00	17694,50
1613,00	17745,45
1614,00	17593,57
1615,00	17449,82
1616,00	16958,02
1617,00	17013,38
1618,00	17252,18
1619,00	17339,27
1620,00	17309,71
1621,00	17148,87
1622,00	17159,66
1623,00	17215,06
1624,00	17074,11
1625,00	16954,79
1626,00	16973,68
1627,00	16787,38
1628,00	16723,90
1629,00	16408,09
1630,00	16444,04
1631,00	16407,86
1632,00	16241,91
1633,00	16205,89
1634,00	15985,51
1635,00	15874,52
1636,00	15976,24
1637,00	16001,45
1638,00	16004,44
1639,00	15911,78
1640,00	15844,00
1641,00	15626,24
1642,00	15633,61
1643,00	15282,53
1644,00	15166,55
1645,00	15282,86
1646,00	15290,95
1647,00	15347,62
1648,00	15341,28
1649,00	15118,83
1650,00	15126,11
1651,00	14966,65
1652,00	14999,72
1653,00	14978,12
1654,00	15006,70
1655,00	14705,68
1656,00	14882,06
1657,00	14721,74
1658,00	14461,26
1659,00	14546,97
1660,00	14446,96
1661,00	14443,89
1662,00	14365,81
1663,00	14476,80
1664,00	14262,03
1665,00	14206,07
1666,00	13960,94
1667,00	13748,19
1668,00	13933,77
1669,00	13901,00
1670,00	13880,55
1671,00	13808,97
1672,00	13673,76
1673,00	13640,78
1674,00	13643,71
1675,00	13721,95
1676,00	13569,91
1677,00	13584,80
1678,00	13485,21
1679,00	13205,68
1680,00	13276,55
1681,00	13096,65
1682,00	13237,70
1683,00	12919,87
1684,00	13101,17
1685,00	13104,71
1686,00	12970,20
1687,00	12939,23
1688,00	12915,43
1689,00	12590,68
1690,00	12655,35
1691,00	12522,92
1692,00	12408,00
1693,00	12428,41
1694,00	12547,61
1695,00	12466,58
1696,00	12368,91
1697,00	12273,96
1698,00	12226,72
1699,00	12092,94
1700,00	12200,65
1701,00	12090,97
1702,00	12016,57
1703,00	12022,47
1704,00	11950,80
1705,00	11783,78
1706,00	11683,37
1707,00	11599,09
1708,00	11674,64
1709,00	11506,42
1710,00	11445,27
1711,00	11580,48
1712,00	11449,39
1713,00	11376,24
1714,00	11462,66
1715,00	11388,44
1716,00	11198,83
1717,00	11111,93
1718,00	11226,19
1719,00	11133,13
1720,00	11081,99
1721,00	10975,57
1722,00	10801,53
1723,00	10875,63
1724,00	10834,41
1725,00	10773,06
1726,00	10731,85
1727,00	10669,33
1728,00	10518,41
1729,00	10462,15
1730,00	10322,53
1731,00	10097,91
1732,00	10024,70
1733,00	10008,08
1734,00	10129,53
1735,00	10236,45
1736,00	10127,90
1737,00	10105,78
1738,00	10091,73
1739,00	9978,13
1740,00	9941,43
1741,00	9769,49
1742,00	9763,57
1743,00	9565,70
1744,00	9727,85
1745,00	9569,47
1746,00	9441,42
1747,00	9432,90
1748,00	9315,36
1749,00	8782,35
1750,00	7252,64
1751,00	6506,90
1752,00	6556,71
1753,00	6457,21
1754,00	6533,00
1755,00	6587,04
1756,00	6774,73
1757,00	6997,62
1758,00	7293,04
1759,00	7613,72
1760,00	7869,75
1761,00	8000,40
1762,00	7796,70
1763,00	7553,75
1764,00	7542,05
1765,00	7386,54
1766,00	7337,46
1767,00	7466,59
1768,00	7121,03
1769,00	7449,57
1770,00	7240,03
1771,00	7130,65
1772,00	7454,26
1773,00	7231,32
1774,00	7227,93
1775,00	7539,92
1776,00	7208,80
1777,00	7182,59
1778,00	7449,39
1779,00	7356,89
1780,00	7245,97
1781,00	7486,84
1782,00	7414,40
1783,00	7134,61
1784,00	7203,56
1785,00	7289,11
1786,00	7167,82
1787,00	7138,12
1788,00	7249,81
1789,00	7196,28
1790,00	6957,20
1791,00	6960,94
1792,00	7015,40
1793,00	6985,05
1794,00	6769,79
1795,00	6654,49
1796,00	6752,19
1797,00	6658,03
1798,00	6668,82
1799,00	6713,73
1800,00	6760,45
1801,00	6502,80
1802,00	6275,51
1803,00	6267,16
1804,00	6271,16
1805,00	6300,53
1806,00	6449,98
1807,00	6323,66
1808,00	6167,94
1809,00	6246,23
1810,00	6299,69
1811,00	6362,35
1812,00	6192,80
1813,00	6222,36
1814,00	6057,47
1815,00	6153,36
1816,00	6121,11
1817,00	6078,58
1818,00	6089,28
1819,00	6201,74
1820,00	6157,22
1821,00	6201,06
1822,00	6260,28
1823,00	6264,84
1824,00	6126,28
1825,00	6124,50
1826,00	6138,85
1827,00	6104,73
1828,00	6036,66
1829,00	5881,06
1830,00	5776,16
1831,00	5796,03
1832,00	5826,62
1833,00	5804,62
1834,00	5820,19
1835,00	5694,31
1836,00	5589,88
1837,00	5525,26
1838,00	5441,91
1839,00	5501,50
1840,00	5431,45
1841,00	5373,54
1842,00	5339,89
1843,00	5378,11
1844,00	5275,87
1845,00	5141,71
1846,00	5151,99
1847,00	5167,41
1848,00	5174,11
1849,00	4980,82
1850,00	4929,05
1851,00	5017,10
1852,00	5052,54
1853,00	5059,14
1854,00	4966,01
1855,00	4964,02
1856,00	4954,66
1857,00	4828,53
1858,00	4717,37
1859,00	4790,70
1860,00	4802,15
1861,00	4838,82
1862,00	4764,00
1863,00	4674,78
1864,00	4636,77
1865,00	4611,35
1866,00	4529,87
1867,00	4620,52
1868,00	4631,90
1869,00	4675,43
1870,00	4666,56
1871,00	4637,77
1872,00	4611,35
1873,00	4515,17
1874,00	4460,43
1875,00	4444,23
1876,00	4456,19
1877,00	4485,36
1878,00	4476,02
1879,00	4439,57
1880,00	4427,76
1881,00	4423,33
1882,00	4408,59
1883,00	4357,40
1884,00	4279,18
1885,00	4229,14
1886,00	4234,17
1887,00	4214,60
1888,00	4209,17
1889,00	4184,53
1890,00	4141,95
1891,00	4106,14
1892,00	4125,38
1893,00	4077,56
1894,00	4048,61
1895,00	4023,12
1896,00	4018,28
1897,00	4000,33
1898,00	4025,28
1899,00	3977,41
1900,00	3964,70
1901,00	3925,92
1902,00	3934,23
1903,00	3904,20
1904,00	3862,28
1905,00	3857,37
1906,00	3844,33
1907,00	3828,53
1908,00	3791,01
1909,00	3737,84
1910,00	3710,90
1911,00	3706,66
1912,00	3686,06
1913,00	3650,93
1914,00	3640,56
1915,00	3624,34
1916,00	3587,92
1917,00	3570,32
1918,00	3594,24
1919,00	3534,98
1920,00	3522,60
1921,00	3501,16
1922,00	3499,73
1923,00	3476,61
1924,00	3473,31
1925,00	3446,77
1926,00	3425,51
1927,00	3405,69
1928,00	3393,43
1929,00	3342,57
1930,00	3351,16
1931,00	3347,81
1932,00	3312,56
1933,00	3278,25
1934,00	3256,83
1935,00	3235,32
1936,00	3199,07
1937,00	3202,84
1938,00	3157,78
1939,00	3166,74
1940,00	3144,65
1941,00	3131,52
1942,00	3098,99
1943,00	3069,03
1944,00	3051,92
1945,00	3050,79
1946,00	3043,82
1947,00	3031,98
1948,00	3014,26
1949,00	3005,36
1950,00	2982,71
1951,00	2971,08
1952,00	2938,21
1953,00	2928,06
1954,00	2912,09
1955,00	2895,08
1956,00	2836,89
1957,00	2800,47
1958,00	2783,83
1959,00	2779,95
1960,00	2761,18
1961,00	2745,52
1962,00	2740,07
1963,00	2735,41
1964,00	2704,61
1965,00	2685,88
1966,00	2659,29
1967,00	2641,32
1968,00	2611,27
1969,00	2570,05
1970,00	2512,33
1971,00	2482,18
1972,00	2445,34
1973,00	2403,12
1974,00	2379,11
1975,00	2328,11
1976,00	2288,01
1977,00	2249,47
1978,00	2228,28
1979,00	2193,48
1980,00	2184,45
1981,00	2187,09
1982,00	2184,98
1983,00	2139,53
1984,00	2122,70
1985,00	2099,16
1986,00	2059,44
1987,00	2060,35
1988,00	2074,25
1989,00	2080,62
1990,00	2034,98
1991,00	2000,36
1992,00	1990,77
1993,00	2003,12
1994,00	2015,41
1995,00	2007,71
1996,00	1972,30
1997,00	1960,57
1998,00	1957,62
1999,00	1964,22
2000,00	1963,12
2001,00	1954,30
2002,00	1950,79
2003,00	1972,63
2004,00	1984,59
2005,00	1998,12
2006,00	2000,83
2007,00	2013,28
2008,00	2019,98
2009,00	2030,91
2010,00	2033,67
2011,00	2032,85
2012,00	2037,25
2013,00	2031,77
2014,00	2026,65
2015,00	2023,95
2016,00	2006,17
2017,00	2004,27
2018,00	1998,51
2019,00	1984,89
2020,00	1963,48
2021,00	1950,32
2022,00	1917,18
2023,00	1891,78
2024,00	1872,29
2025,00	1859,16
2026,00	1855,62
2027,00	1835,10
2028,00	1814,22
2029,00	1805,54
2030,00	1803,03
2031,00	1789,55
2032,00	1794,25
2033,00	1796,81
2034,00	1780,16
2035,00	1765,84
2036,00	1772,75
2037,00	1767,99
2038,00	1754,82
2039,00	1756,36
2040,00	1747,40
2041,00	1735,72
2042,00	1737,99
2043,00	1738,99
2044,00	1723,57
2045,00	1716,95
2046,00	1716,95
2047,00	1716,95
>>>>>End Processed Spectral Data<<<<<
