SpectraSuite Datei
++++++++++++++++++++++++++++++++++++
Datum: Thu Sep 19 14:00:00 CEST 2024
Benutzer: Student
Dark-Spektrum vorhanden: Nein
Referenz-Spektrum vorhanden: Nein
Zahl der probierten Teilspektren: 1
Spektrometer: USB2+H15728
Integrationszeit (usec): 500000 (USB2+H15728)
Spektren Durchschnitt berechnet: 500 (USB2+H15728)
Boxcar Glättung: 0 (USB2+H15728)
Dunkelstromkorrektur: Nein (USB2+H15728)
Puls/Lampe aktiviert: Nein (USB2+H15728)
Correct for Detector Non-linearity: Nein (USB2+H15728)
Streulichtkorrektur: Nein (USB2+H15728)
Anzahl Pixel in verarbeitetem Spektrum: 2048
>>>>>Begin Processed Spectral Data<<<<<
0,00	1011,38
1,00	1011,38
2,00	1011,38
3,00	981,18
4,00	1039,26
5,00	1033,61
6,00	1027,66
7,00	1042,29
8,00	1099,19
9,00	1074,15
10,00	1086,48
11,00	1134,95
12,00	1097,50
13,00	1236,52
14,00	1127,70
15,00	1163,02
16,00	1170,80
17,00	1229,49
18,00	1202,76
19,00	1288,40
20,00	1230,33
21,00	1247,63
22,00	1279,73
23,00	1320,75
24,00	1288,39
25,00	1319,03
26,00	1344,78
27,00	1386,09
28,00	1350,59
29,00	1354,81
30,00	1384,30
31,00	1376,81
32,00	1465,69
33,00	1380,79
34,00	1405,51
35,00	1411,51
36,00	1404,86
37,00	1378,23
38,00	1403,61
39,00	1480,15
40,00	1386,63
41,00	1446,62
42,00	1402,87
43,00	1431,33
44,00	1388,71
45,00	1390,04
46,00	1376,79
47,00	1423,67
48,00	1386,30
49,00	1460,75
50,00	1393,31
51,00	1414,59
52,00	1384,93
53,00	1460,78
54,00	1392,15
55,00	1379,15
56,00	1432,65
57,00	1389,67
58,00	1384,16
59,00	1384,47
60,00	1343,77
61,00	1380,63
62,00	1363,76
63,00	1355,21
64,00	1360,50
65,00	1348,79
66,00	1361,63
67,00	1357,75
68,00	1364,87
69,00	1357,84
70,00	1618,23
71,00	1384,79
72,00	1362,52
73,00	1358,41
74,00	1358,83
75,00	1351,29
76,00	1346,85
77,00	1380,52
78,00	1361,90
79,00	1366,77
80,00	1363,75
81,00	1336,87
82,00	1385,97
83,00	1340,52
84,00	1455,46
85,00	1387,57
86,00	1478,85
87,00	1456,40
88,00	1349,35
89,00	1338,91
90,00	1361,62
91,00	1429,72
92,00	1379,66
93,00	1397,79
94,00	1354,97
95,00	1347,66
96,00	1357,29
97,00	1581,84
98,00	1368,37
99,00	1359,37
100,00	1386,26
101,00	1405,87
102,00	1362,14
103,00	1362,14
104,00	1362,22
105,00	1412,56
106,00	1388,28
107,00	1395,82
108,00	1400,55
109,00	1371,75
110,00	1461,64
111,00	1409,14
112,00	1368,60
113,00	1399,88
114,00	1363,87
115,00	1366,99
116,00	1369,64
117,00	1360,94
118,00	1371,44
119,00	1473,55
120,00	1373,21
121,00	1360,72
122,00	1381,28
123,00	1355,27
124,00	1359,51
125,00	1359,94
126,00	1377,73
127,00	1396,59
128,00	1373,64
129,00	1399,03
130,00	1383,58
131,00	1409,12
132,00	1362,48
133,00	1422,06
134,00	1382,93
135,00	1369,92
136,00	1357,97
137,00	1407,25
138,00	1459,59
139,00	1394,07
140,00	1391,86
141,00	1430,59
142,00	1383,05
143,00	1359,63
144,00	1383,94
145,00	1369,94
146,00	1378,23
147,00	1442,95
148,00	1574,39
149,00	1413,45
150,00	1358,55
151,00	1402,41
152,00	1361,68
153,00	1368,04
154,00	1372,94
155,00	1358,32
156,00	1413,70
157,00	1371,89
158,00	1396,77
159,00	1420,24
160,00	1415,77
161,00	1433,93
162,00	1358,21
163,00	1373,16
164,00	1362,14
165,00	1359,74
166,00	1376,06
167,00	1402,34
168,00	1357,88
169,00	1366,17
170,00	1374,23
171,00	1350,71
172,00	1422,43
173,00	1352,72
174,00	1372,49
175,00	1379,37
176,00	1373,86
177,00	1373,55
178,00	1395,20
179,00	1365,45
180,00	1401,99
181,00	1371,91
182,00	1364,15
183,00	1480,28
184,00	1361,04
185,00	1360,18
186,00	1353,06
187,00	1378,10
188,00	1422,72
189,00	1375,56
190,00	1353,97
191,00	1362,95
192,00	1395,61
193,00	1364,06
194,00	1382,51
195,00	1408,78
196,00	1411,20
197,00	1389,57
198,00	1467,26
199,00	1370,04
200,00	1355,40
201,00	1412,33
202,00	1391,57
203,00	1387,24
204,00	1387,01
205,00	1397,30
206,00	1375,58
207,00	1385,01
208,00	1393,50
209,00	1385,77
210,00	1409,42
211,00	1412,48
212,00	1361,79
213,00	1398,66
214,00	1401,58
215,00	1388,39
216,00	1382,55
217,00	1387,41
218,00	1433,80
219,00	1373,46
220,00	1460,17
221,00	1395,40
222,00	1412,98
223,00	1386,91
224,00	1389,53
225,00	1355,28
226,00	1391,31
227,00	1367,65
228,00	1376,71
229,00	1389,68
230,00	1372,55
231,00	1404,11
232,00	1400,66
233,00	1385,03
234,00	1391,42
235,00	1393,23
236,00	1463,13
237,00	1385,93
238,00	1367,73
239,00	1367,87
240,00	1406,13
241,00	1418,25
242,00	1375,06
243,00	1418,98
244,00	1385,38
245,00	1364,12
246,00	1364,91
247,00	1385,98
248,00	1404,47
249,00	1423,50
250,00	1429,31
251,00	1384,91
252,00	1419,09
253,00	1393,54
254,00	1413,52
255,00	1366,47
256,00	1399,88
257,00	1401,06
258,00	1381,68
259,00	1380,82
260,00	1360,97
261,00	1384,28
262,00	1356,18
263,00	1362,59
264,00	1393,18
265,00	1389,06
266,00	1374,72
267,00	1380,23
268,00	1407,47
269,00	1396,78
270,00	1387,09
271,00	1419,42
272,00	1405,85
273,00	1379,08
274,00	1384,36
275,00	1390,55
276,00	1368,77
277,00	1392,64
278,00	1384,30
279,00	1408,16
280,00	1373,25
281,00	1388,66
282,00	1362,81
283,00	1397,63
284,00	1388,36
285,00	1391,74
286,00	1410,82
287,00	1388,07
288,00	1361,18
289,00	1380,12
290,00	1422,87
291,00	1370,18
292,00	1416,30
293,00	1381,94
294,00	1398,48
295,00	1397,75
296,00	1359,47
297,00	1366,23
298,00	1392,27
299,00	1393,10
300,00	1390,94
301,00	1398,59
302,00	1382,19
303,00	1416,13
304,00	1374,36
305,00	1415,50
306,00	1389,67
307,00	1369,35
308,00	1387,06
309,00	1391,09
310,00	1382,52
311,00	1370,60
312,00	1388,68
313,00	1438,19
314,00	1413,32
315,00	1372,48
316,00	1393,80
317,00	1361,64
318,00	1366,05
319,00	1395,24
320,00	1381,04
321,00	1374,04
322,00	1362,44
323,00	1426,25
324,00	1385,75
325,00	1421,29
326,00	1365,61
327,00	1383,79
328,00	1407,54
329,00	1411,69
330,00	1382,72
331,00	1375,50
332,00	1367,73
333,00	1408,60
334,00	1386,09
335,00	1391,28
336,00	1402,93
337,00	1384,48
338,00	1417,89
339,00	1370,06
340,00	1364,58
341,00	1376,86
342,00	1364,45
343,00	1438,41
344,00	1475,04
345,00	1379,10
346,00	1364,38
347,00	1406,57
348,00	1356,91
349,00	1445,41
350,00	1386,97
351,00	1362,38
352,00	1471,34
353,00	1411,75
354,00	1359,21
355,00	1381,16
356,00	1392,78
357,00	1423,74
358,00	1369,04
359,00	1374,89
360,00	1394,65
361,00	1383,19
362,00	1431,16
363,00	1403,98
364,00	1431,36
365,00	1384,98
366,00	1395,55
367,00	1375,31
368,00	1382,21
369,00	1375,19
370,00	1363,80
371,00	1366,88
372,00	1446,06
373,00	1375,94
374,00	1386,36
375,00	1378,18
376,00	1363,80
377,00	1669,54
378,00	1394,16
379,00	1373,95
380,00	1369,58
381,00	1477,47
382,00	1416,66
383,00	1379,41
384,00	1372,55
385,00	1366,28
386,00	1396,25
387,00	1393,26
388,00	1397,51
389,00	1433,02
390,00	1407,02
391,00	1391,89
392,00	1373,62
393,00	1392,80
394,00	1388,84
395,00	1381,22
396,00	1406,77
397,00	1375,10
398,00	1409,41
399,00	1380,10
400,00	1411,61
401,00	1374,36
402,00	1384,41
403,00	1382,51
404,00	1397,32
405,00	1409,80
406,00	1372,78
407,00	1420,28
408,00	1382,44
409,00	1429,12
410,00	1400,19
411,00	1380,99
412,00	1365,96
413,00	1365,76
414,00	1463,39
415,00	1411,09
416,00	1435,97
417,00	1379,95
418,00	1374,43
419,00	1382,53
420,00	1412,36
421,00	1383,57
422,00	1409,09
423,00	1368,80
424,00	1368,33
425,00	1370,88
426,00	1366,29
427,00	1381,84
428,00	1378,05
429,00	1365,59
430,00	1365,51
431,00	1377,49
432,00	1375,92
433,00	1365,96
434,00	1423,34
435,00	1411,54
436,00	1445,64
437,00	1392,41
438,00	1385,10
439,00	1380,41
440,00	1399,27
441,00	1382,59
442,00	1409,84
443,00	1376,96
444,00	1373,98
445,00	1379,83
446,00	1409,54
447,00	1383,27
448,00	1438,92
449,00	1385,21
450,00	1361,63
451,00	1456,22
452,00	1434,60
453,00	1380,00
454,00	1408,06
455,00	1373,60
456,00	1389,61
457,00	1540,28
458,00	1383,52
459,00	1378,21
460,00	1373,74
461,00	1367,01
462,00	1366,43
463,00	1377,15
464,00	1387,98
465,00	1364,95
466,00	1397,49
467,00	1391,21
468,00	1376,17
469,00	1404,17
470,00	1437,61
471,00	1394,07
472,00	1446,28
473,00	1369,72
474,00	1369,78
475,00	1401,29
476,00	1372,03
477,00	1373,15
478,00	1413,47
479,00	1400,31
480,00	1394,27
481,00	1359,91
482,00	1387,68
483,00	1445,73
484,00	1385,59
485,00	1436,32
486,00	1363,57
487,00	1382,72
488,00	1403,82
489,00	1375,91
490,00	1407,15
491,00	1408,77
492,00	1390,85
493,00	1370,12
494,00	1392,51
495,00	1436,14
496,00	1399,53
497,00	1373,53
498,00	1393,41
499,00	1356,89
500,00	1359,51
501,00	1369,96
502,00	1401,32
503,00	1390,23
504,00	1392,09
505,00	1405,54
506,00	1430,08
507,00	1443,06
508,00	1427,84
509,00	1367,04
510,00	1382,62
511,00	1406,37
512,00	1391,25
513,00	1429,18
514,00	1516,91
515,00	1384,82
516,00	1388,14
517,00	1377,67
518,00	1383,17
519,00	1438,95
520,00	1432,81
521,00	1363,90
522,00	1403,65
523,00	1478,58
524,00	1408,80
525,00	1370,51
526,00	1371,57
527,00	1388,67
528,00	1402,95
529,00	1403,54
530,00	1386,88
531,00	1389,17
532,00	1361,60
533,00	1407,66
534,00	1376,64
535,00	1404,35
536,00	1411,35
537,00	1408,39
538,00	1438,51
539,00	1404,02
540,00	1370,52
541,00	1417,79
542,00	1370,15
543,00	1399,41
544,00	1407,09
545,00	1386,82
546,00	1364,51
547,00	1419,84
548,00	1386,77
549,00	1366,06
550,00	1385,47
551,00	1390,56
552,00	1508,11
553,00	1423,94
554,00	1404,65
555,00	1424,27
556,00	1379,56
557,00	1404,88
558,00	1365,09
559,00	1381,59
560,00	1441,29
561,00	1441,77
562,00	1414,81
563,00	1381,57
564,00	1400,94
565,00	1408,60
566,00	1389,38
567,00	1407,65
568,00	1397,52
569,00	1383,56
570,00	1399,11
571,00	1399,06
572,00	1371,58
573,00	1387,55
574,00	1381,54
575,00	1405,67
576,00	1427,72
577,00	1401,63
578,00	1368,73
579,00	1367,25
580,00	1389,08
581,00	1403,37
582,00	1379,08
583,00	1378,06
584,00	1364,58
585,00	1424,30
586,00	1376,48
587,00	1390,53
588,00	1375,82
589,00	1381,97
590,00	1418,62
591,00	1368,50
592,00	1403,15
593,00	1395,71
594,00	1382,85
595,00	1389,53
596,00	1410,36
597,00	1401,62
598,00	1362,36
599,00	1397,43
600,00	1394,33
601,00	2988,85
602,00	1506,17
603,00	1400,39
604,00	1391,98
605,00	1398,02
606,00	1393,74
607,00	1382,26
608,00	1393,33
609,00	1402,87
610,00	1390,93
611,00	1366,17
612,00	1409,31
613,00	1376,70
614,00	1410,27
615,00	1394,57
616,00	1405,88
617,00	1433,82
618,00	1403,20
619,00	1368,88
620,00	1380,96
621,00	1398,60
622,00	1373,51
623,00	1393,56
624,00	1367,73
625,00	1478,76
626,00	1371,39
627,00	1426,55
628,00	1386,07
629,00	1408,77
630,00	1383,83
631,00	1369,08
632,00	1402,80
633,00	1374,99
634,00	1392,82
635,00	1435,42
636,00	1399,02
637,00	1384,59
638,00	1372,27
639,00	1387,09
640,00	1395,77
641,00	1388,85
642,00	1383,04
643,00	1386,36
644,00	1370,58
645,00	1393,33
646,00	1368,87
647,00	1375,09
648,00	1370,29
649,00	1384,09
650,00	1385,21
651,00	1383,87
652,00	1395,81
653,00	1383,66
654,00	1382,14
655,00	1380,26
656,00	1416,43
657,00	1391,21
658,00	1421,66
659,00	1411,12
660,00	1576,77
661,00	1426,34
662,00	1394,77
663,00	1403,19
664,00	1412,69
665,00	1384,91
666,00	1435,77
667,00	1375,12
668,00	1363,72
669,00	1415,12
670,00	1404,34
671,00	1394,57
672,00	1380,74
673,00	1422,35
674,00	1399,41
675,00	1377,08
676,00	1437,29
677,00	1391,51
678,00	1376,43
679,00	1395,17
680,00	1382,88
681,00	1374,32
682,00	1401,25
683,00	1381,42
684,00	1375,33
685,00	1394,74
686,00	1396,60
687,00	1421,92
688,00	1374,69
689,00	1449,19
690,00	1442,10
691,00	1389,02
692,00	1384,89
693,00	1384,84
694,00	1365,98
695,00	1431,61
696,00	1401,41
697,00	1385,09
698,00	1406,01
699,00	1549,93
700,00	1397,24
701,00	1440,75
702,00	1436,00
703,00	1389,36
704,00	1435,53
705,00	1395,96
706,00	1419,18
707,00	1395,28
708,00	1426,45
709,00	1389,66
710,00	1381,32
711,00	1416,32
712,00	1387,06
713,00	1390,39
714,00	1390,37
715,00	1383,59
716,00	1409,39
717,00	1403,38
718,00	1383,11
719,00	1375,65
720,00	1432,57
721,00	1409,88
722,00	1401,34
723,00	1492,96
724,00	1417,06
725,00	1420,43
726,00	1405,14
727,00	1387,58
728,00	1400,18
729,00	1484,62
730,00	1385,82
731,00	1406,36
732,00	1405,76
733,00	1379,04
734,00	1445,01
735,00	1404,78
736,00	1389,83
737,00	1387,01
738,00	1390,20
739,00	1398,54
740,00	1410,32
741,00	1437,12
742,00	1518,19
743,00	1425,99
744,00	1414,82
745,00	1392,51
746,00	1418,10
747,00	1421,25
748,00	1464,86
749,00	1497,03
750,00	1591,58
751,00	1964,80
752,00	2812,02
753,00	3667,25
754,00	5554,07
755,00	6672,00
756,00	4827,28
757,00	4234,39
758,00	4967,27
759,00	3350,74
760,00	2509,50
761,00	2107,45
762,00	1793,88
763,00	1636,95
764,00	1496,19
765,00	1487,03
766,00	1434,15
767,00	1448,61
768,00	1406,82
769,00	1395,78
770,00	1420,64
771,00	1404,46
772,00	1408,28
773,00	1416,45
774,00	1418,56
775,00	1435,71
776,00	1390,05
777,00	1397,74
778,00	1397,37
779,00	1393,41
780,00	1407,81
781,00	1380,90
782,00	1431,30
783,00	1402,93
784,00	1432,91
785,00	1475,75
786,00	1405,10
787,00	1405,43
788,00	1411,69
789,00	1410,98
790,00	1402,13
791,00	1404,49
792,00	1407,29
793,00	1404,74
794,00	1406,59
795,00	1401,75
796,00	1407,36
797,00	1395,53
798,00	1417,49
799,00	1396,62
800,00	1418,87
801,00	1432,15
802,00	1487,92
803,00	1442,27
804,00	1411,97
805,00	1387,39
806,00	1404,73
807,00	1384,48
808,00	1374,03
809,00	1377,27
810,00	1410,13
811,00	1378,59
812,00	1419,22
813,00	1397,83
814,00	1420,60
815,00	1398,01
816,00	1432,47
817,00	1413,64
818,00	1389,16
819,00	1424,06
820,00	1379,93
821,00	1435,39
822,00	1390,07
823,00	1389,24
824,00	1401,65
825,00	1404,49
826,00	1391,43
827,00	1451,44
828,00	1449,54
829,00	1558,43
830,00	1545,08
831,00	1544,19
832,00	1490,82
833,00	1504,83
834,00	1478,28
835,00	1414,87
836,00	1440,69
837,00	1424,41
838,00	1390,55
839,00	1396,42
840,00	1388,21
841,00	3007,29
842,00	1499,57
843,00	1458,68
844,00	1413,06
845,00	1449,47
846,00	1410,55
847,00	1385,95
848,00	1398,71
849,00	1396,59
850,00	1402,24
851,00	1377,94
852,00	1364,04
853,00	1414,62
854,00	1380,80
855,00	1380,66
856,00	1377,86
857,00	1416,07
858,00	1391,62
859,00	1434,85
860,00	1434,99
861,00	1394,66
862,00	1392,81
863,00	1388,49
864,00	1418,37
865,00	1393,72
866,00	1457,43
867,00	1448,31
868,00	1409,29
869,00	1454,78
870,00	1404,30
871,00	1425,50
872,00	1404,49
873,00	1383,84
874,00	1380,31
875,00	1402,02
876,00	1397,30
877,00	1364,35
878,00	1391,97
879,00	1418,90
880,00	1408,58
881,00	1370,21
882,00	1432,21
883,00	1384,92
884,00	1373,74
885,00	1397,78
886,00	1393,78
887,00	1403,84
888,00	1381,49
889,00	1377,10
890,00	1428,82
891,00	1454,78
892,00	1407,25
893,00	1376,95
894,00	1366,57
895,00	1375,13
896,00	1387,45
897,00	1370,41
898,00	1411,61
899,00	1384,03
900,00	1416,99
901,00	1390,52
902,00	1384,53
903,00	1421,75
904,00	1428,41
905,00	1456,71
906,00	1500,15
907,00	1461,73
908,00	1448,65
909,00	1444,94
910,00	1427,49
911,00	1422,75
912,00	1421,93
913,00	1411,29
914,00	1395,62
915,00	1398,55
916,00	1425,93
917,00	1385,26
918,00	1366,73
919,00	1367,40
920,00	1383,84
921,00	1390,01
922,00	1402,88
923,00	1410,25
924,00	1399,21
925,00	1389,45
926,00	1399,67
927,00	1396,80
928,00	1386,79
929,00	1398,86
930,00	1389,42
931,00	1417,99
932,00	1380,10
933,00	1436,39
934,00	1374,77
935,00	1431,15
936,00	1395,98
937,00	1383,06
938,00	1374,38
939,00	1440,08
940,00	1376,95
941,00	1372,79
942,00	1402,62
943,00	1404,79
944,00	1519,70
945,00	1444,84
946,00	1421,56
947,00	1432,15
948,00	1446,78
949,00	1420,89
950,00	1444,41
951,00	1414,47
952,00	1388,45
953,00	1376,24
954,00	1382,81
955,00	1416,34
956,00	1378,85
957,00	1372,77
958,00	1388,44
959,00	1401,50
960,00	1364,02
961,00	1415,53
962,00	1387,10
963,00	1404,16
964,00	1522,88
965,00	1393,11
966,00	1406,99
967,00	1413,11
968,00	1376,53
969,00	1476,30
970,00	1392,88
971,00	1419,89
972,00	1388,77
973,00	1411,33
974,00	1377,88
975,00	1387,56
976,00	1367,64
977,00	1416,15
978,00	1399,21
979,00	1381,27
980,00	1379,25
981,00	1407,98
982,00	1381,37
983,00	1373,86
984,00	1396,58
985,00	1416,99
986,00	1430,12
987,00	1454,65
988,00	1504,89
989,00	1408,67
990,00	1407,10
991,00	1410,06
992,00	1415,78
993,00	1381,02
994,00	1378,07
995,00	1399,10
996,00	1377,54
997,00	1412,78
998,00	1391,28
999,00	1453,69
1000,00	1363,47
1001,00	1401,97
1002,00	1375,73
1003,00	1368,74
1004,00	1429,56
1005,00	1375,66
1006,00	1380,24
1007,00	1402,91
1008,00	1385,97
1009,00	1377,19
1010,00	1381,32
1011,00	1374,11
1012,00	1418,67
1013,00	1368,32
1014,00	1375,58
1015,00	1402,10
1016,00	1400,17
1017,00	1368,84
1018,00	1416,00
1019,00	1407,21
1020,00	1386,00
1021,00	1383,19
1022,00	1397,49
1023,00	1383,67
1024,00	1426,43
1025,00	1400,61
1026,00	1437,64
1027,00	1441,10
1028,00	1477,67
1029,00	1424,14
1030,00	1409,36
1031,00	1396,32
1032,00	1393,89
1033,00	1425,23
1034,00	1393,63
1035,00	1424,70
1036,00	1402,10
1037,00	1402,63
1038,00	1390,70
1039,00	1371,04
1040,00	1387,76
1041,00	1386,10
1042,00	1421,83
1043,00	1409,80
1044,00	1589,16
1045,00	1416,44
1046,00	1378,72
1047,00	1374,14
1048,00	1404,77
1049,00	1392,17
1050,00	1399,87
1051,00	1390,70
1052,00	1402,50
1053,00	1403,37
1054,00	1372,42
1055,00	1414,78
1056,00	1419,54
1057,00	1386,58
1058,00	1389,99
1059,00	1404,64
1060,00	1385,23
1061,00	1391,03
1062,00	1375,86
1063,00	1362,25
1064,00	1421,68
1065,00	1387,24
1066,00	1370,02
1067,00	1410,15
1068,00	1400,06
1069,00	1421,81
1070,00	1423,09
1071,00	1438,54
1072,00	1416,84
1073,00	1407,14
1074,00	1392,88
1075,00	1434,72
1076,00	1385,39
1077,00	1387,92
1078,00	1395,40
1079,00	1372,94
1080,00	1460,27
1081,00	1423,99
1082,00	1381,74
1083,00	1412,52
1084,00	1393,18
1085,00	1424,35
1086,00	1368,75
1087,00	1417,58
1088,00	1409,53
1089,00	1383,66
1090,00	1383,96
1091,00	1423,28
1092,00	1431,57
1093,00	1484,48
1094,00	1404,63
1095,00	1395,12
1096,00	1388,46
1097,00	1405,56
1098,00	1365,82
1099,00	1434,20
1100,00	1379,56
1101,00	1391,22
1102,00	1388,06
1103,00	1430,29
1104,00	1417,54
1105,00	1458,79
1106,00	1395,88
1107,00	1407,66
1108,00	1401,13
1109,00	1381,09
1110,00	1391,47
1111,00	1490,56
1112,00	1467,70
1113,00	1439,79
1114,00	1430,43
1115,00	1406,69
1116,00	1441,26
1117,00	1402,36
1118,00	1400,42
1119,00	1413,89
1120,00	1437,91
1121,00	1547,19
1122,00	1406,89
1123,00	1386,46
1124,00	1424,20
1125,00	1369,63
1126,00	1397,06
1127,00	1399,44
1128,00	1499,61
1129,00	1380,26
1130,00	1367,89
1131,00	1414,90
1132,00	1393,10
1133,00	1406,67
1134,00	1458,76
1135,00	1420,09
1136,00	1435,21
1137,00	1415,45
1138,00	1391,73
1139,00	1394,99
1140,00	1389,41
1141,00	1380,86
1142,00	1378,75
1143,00	1394,06
1144,00	1430,01
1145,00	1458,21
1146,00	1403,16
1147,00	1408,21
1148,00	1380,56
1149,00	1375,13
1150,00	1391,22
1151,00	1425,21
1152,00	1412,15
1153,00	1385,04
1154,00	1412,83
1155,00	1381,79
1156,00	1413,81
1157,00	1405,06
1158,00	1419,31
1159,00	1390,90
1160,00	1392,83
1161,00	1419,67
1162,00	1423,13
1163,00	1388,85
1164,00	1373,27
1165,00	1434,87
1166,00	1446,21
1167,00	1395,60
1168,00	1407,72
1169,00	1385,23
1170,00	1390,10
1171,00	1443,23
1172,00	1388,46
1173,00	1398,90
1174,00	1394,75
1175,00	1381,81
1176,00	1382,73
1177,00	1418,36
1178,00	1466,93
1179,00	1426,23
1180,00	1394,14
1181,00	1405,57
1182,00	1396,08
1183,00	1408,59
1184,00	1383,87
1185,00	1397,09
1186,00	1416,19
1187,00	1403,73
1188,00	1417,94
1189,00	1370,58
1190,00	1384,66
1191,00	1410,69
1192,00	1438,17
1193,00	1387,64
1194,00	1388,44
1195,00	1408,67
1196,00	1433,05
1197,00	1379,39
1198,00	1436,60
1199,00	1427,55
1200,00	1406,69
1201,00	1395,41
1202,00	1442,27
1203,00	1448,41
1204,00	1418,23
1205,00	1449,20
1206,00	1409,06
1207,00	1440,29
1208,00	1430,84
1209,00	1384,63
1210,00	1390,99
1211,00	1419,22
1212,00	1388,76
1213,00	1372,71
1214,00	1369,80
1215,00	1399,78
1216,00	1366,62
1217,00	1407,50
1218,00	1384,09
1219,00	1394,51
1220,00	1392,36
1221,00	1445,30
1222,00	1422,62
1223,00	1378,29
1224,00	1390,18
1225,00	1377,65
1226,00	1381,81
1227,00	1400,38
1228,00	1377,27
1229,00	1390,84
1230,00	1383,94
1231,00	1386,83
1232,00	1373,45
1233,00	1379,09
1234,00	1393,62
1235,00	1375,51
1236,00	1418,11
1237,00	1398,87
1238,00	1393,51
1239,00	1397,07
1240,00	1365,18
1241,00	1411,61
1242,00	1394,72
1243,00	1417,99
1244,00	1364,97
1245,00	1386,22
1246,00	1393,85
1247,00	1425,38
1248,00	1413,13
1249,00	1415,46
1250,00	1391,37
1251,00	1413,00
1252,00	1398,26
1253,00	1428,56
1254,00	1392,13
1255,00	1412,13
1256,00	1392,34
1257,00	1402,24
1258,00	1377,85
1259,00	1363,56
1260,00	1412,78
1261,00	1395,81
1262,00	1380,20
1263,00	1384,53
1264,00	1405,37
1265,00	1376,01
1266,00	1473,02
1267,00	1397,06
1268,00	1376,61
1269,00	1388,62
1270,00	1417,87
1271,00	1383,22
1272,00	1386,44
1273,00	1410,98
1274,00	1392,53
1275,00	1378,06
1276,00	1471,20
1277,00	1718,17
1278,00	1450,67
1279,00	1406,21
1280,00	1394,04
1281,00	1379,24
1282,00	1381,27
1283,00	1378,68
1284,00	1387,41
1285,00	1479,71
1286,00	1381,74
1287,00	1403,77
1288,00	1400,30
1289,00	1472,00
1290,00	1391,38
1291,00	1381,79
1292,00	1401,80
1293,00	1385,22
1294,00	1376,58
1295,00	1392,66
1296,00	1454,03
1297,00	1417,45
1298,00	1430,21
1299,00	1402,86
1300,00	1448,33
1301,00	1448,72
1302,00	1472,06
1303,00	1404,00
1304,00	1468,75
1305,00	1421,67
1306,00	1405,81
1307,00	1404,79
1308,00	1416,47
1309,00	1382,25
1310,00	1382,12
1311,00	1391,05
1312,00	1385,56
1313,00	1382,25
1314,00	1397,34
1315,00	1448,08
1316,00	1371,51
1317,00	1369,00
1318,00	1397,59
1319,00	1404,06
1320,00	1388,68
1321,00	1413,87
1322,00	1651,66
1323,00	1384,31
1324,00	1379,25
1325,00	1381,01
1326,00	1377,67
1327,00	1363,11
1328,00	1406,82
1329,00	1373,40
1330,00	1393,36
1331,00	1404,99
1332,00	1375,93
1333,00	1388,04
1334,00	1372,43
1335,00	1414,10
1336,00	1411,19
1337,00	1419,95
1338,00	1397,23
1339,00	1370,66
1340,00	1393,85
1341,00	1407,59
1342,00	1394,27
1343,00	1443,13
1344,00	1405,23
1345,00	1359,77
1346,00	1378,93
1347,00	1395,35
1348,00	1395,92
1349,00	1367,80
1350,00	1465,34
1351,00	1446,57
1352,00	1402,08
1353,00	1392,88
1354,00	1537,94
1355,00	1377,44
1356,00	1366,40
1357,00	1369,85
1358,00	1401,87
1359,00	1420,41
1360,00	1390,33
1361,00	1374,24
1362,00	1380,98
1363,00	1388,00
1364,00	1412,04
1365,00	1437,66
1366,00	1379,50
1367,00	1366,66
1368,00	1382,55
1369,00	1379,98
1370,00	1407,65
1371,00	1379,33
1372,00	1365,14
1373,00	1453,66
1374,00	1385,08
1375,00	1396,33
1376,00	1406,68
1377,00	1410,44
1378,00	1433,52
1379,00	1401,38
1380,00	1509,60
1381,00	1383,87
1382,00	1375,42
1383,00	1456,39
1384,00	1386,59
1385,00	1406,55
1386,00	1431,21
1387,00	1438,10
1388,00	1390,21
1389,00	1421,33
1390,00	1376,33
1391,00	1374,92
1392,00	1449,92
1393,00	1410,39
1394,00	1393,17
1395,00	1381,94
1396,00	1443,67
1397,00	1393,91
1398,00	1526,64
1399,00	1629,61
1400,00	1454,68
1401,00	1460,59
1402,00	1615,33
1403,00	1424,78
1404,00	1394,62
1405,00	1395,69
1406,00	1394,28
1407,00	1392,49
1408,00	1394,60
1409,00	1387,15
1410,00	1375,79
1411,00	2126,77
1412,00	1437,83
1413,00	1369,39
1414,00	1367,34
1415,00	1373,04
1416,00	1359,68
1417,00	1368,66
1418,00	1400,47
1419,00	1412,94
1420,00	1375,58
1421,00	1370,82
1422,00	1362,90
1423,00	1361,79
1424,00	1392,23
1425,00	1364,60
1426,00	1400,95
1427,00	1396,05
1428,00	1360,24
1429,00	1388,00
1430,00	1363,09
1431,00	1367,76
1432,00	1401,78
1433,00	1380,10
1434,00	1411,08
1435,00	1401,40
1436,00	1380,76
1437,00	1426,78
1438,00	1381,36
1439,00	1384,18
1440,00	1381,60
1441,00	1379,93
1442,00	1372,87
1443,00	1365,81
1444,00	1374,04
1445,00	1364,57
1446,00	1405,84
1447,00	1389,61
1448,00	1408,63
1449,00	1388,93
1450,00	1394,73
1451,00	1380,10
1452,00	1440,95
1453,00	1391,65
1454,00	1427,60
1455,00	1427,07
1456,00	1375,86
1457,00	1437,70
1458,00	1416,64
1459,00	1380,78
1460,00	1376,29
1461,00	1397,76
1462,00	1384,54
1463,00	1401,71
1464,00	1379,77
1465,00	1390,32
1466,00	1370,84
1467,00	1411,09
1468,00	1380,97
1469,00	1373,65
1470,00	1385,26
1471,00	1408,04
1472,00	1389,19
1473,00	1372,85
1474,00	1392,71
1475,00	1370,29
1476,00	1472,67
1477,00	1417,08
1478,00	1587,44
1479,00	1464,30
1480,00	1403,54
1481,00	1376,72
1482,00	1383,29
1483,00	1380,49
1484,00	1423,55
1485,00	1422,55
1486,00	1383,56
1487,00	1412,65
1488,00	1413,42
1489,00	1401,24
1490,00	1401,86
1491,00	1403,21
1492,00	1386,82
1493,00	1373,55
1494,00	1367,51
1495,00	1405,93
1496,00	1379,71
1497,00	1441,15
1498,00	1428,20
1499,00	1410,49
1500,00	1397,77
1501,00	1400,52
1502,00	1379,86
1503,00	1466,64
1504,00	1393,77
1505,00	1436,83
1506,00	1385,33
1507,00	1372,90
1508,00	1407,10
1509,00	1381,13
1510,00	1365,63
1511,00	1413,05
1512,00	1383,31
1513,00	1388,25
1514,00	1389,65
1515,00	1395,06
1516,00	1640,82
1517,00	1451,75
1518,00	1393,90
1519,00	1393,00
1520,00	1412,69
1521,00	1378,95
1522,00	1400,62
1523,00	1388,57
1524,00	1381,74
1525,00	1370,46
1526,00	1373,59
1527,00	1366,75
1528,00	1396,86
1529,00	1361,56
1530,00	1367,17
1531,00	1378,25
1532,00	1373,62
1533,00	1356,82
1534,00	1387,88
1535,00	1362,10
1536,00	1393,83
1537,00	1412,60
1538,00	1411,38
1539,00	1414,93
1540,00	1401,04
1541,00	1399,60
1542,00	1371,07
1543,00	1378,05
1544,00	1411,34
1545,00	1394,56
1546,00	1379,43
1547,00	1393,72
1548,00	1380,14
1549,00	1374,96
1550,00	1380,55
1551,00	1387,92
1552,00	1372,70
1553,00	1365,58
1554,00	1371,19
1555,00	1362,96
1556,00	1373,11
1557,00	1409,11
1558,00	1393,88
1559,00	1383,45
1560,00	1384,56
1561,00	1384,93
1562,00	1429,16
1563,00	1397,87
1564,00	1375,49
1565,00	1394,15
1566,00	1398,66
1567,00	1415,04
1568,00	1395,51
1569,00	1391,33
1570,00	1387,63
1571,00	1401,41
1572,00	1417,37
1573,00	1396,53
1574,00	1438,77
1575,00	1376,28
1576,00	1365,81
1577,00	1368,81
1578,00	1407,32
1579,00	1380,27
1580,00	1373,29
1581,00	1379,94
1582,00	1365,22
1583,00	1441,87
1584,00	1391,08
1585,00	1362,13
1586,00	1392,53
1587,00	1401,01
1588,00	1418,43
1589,00	1383,92
1590,00	1400,36
1591,00	1385,65
1592,00	1450,13
1593,00	1372,73
1594,00	1390,23
1595,00	1369,32
1596,00	1384,52
1597,00	1374,59
1598,00	1372,74
1599,00	1381,23
1600,00	1358,94
1601,00	1401,53
1602,00	1423,65
1603,00	1396,91
1604,00	1377,78
1605,00	1438,51
1606,00	1367,14
1607,00	1378,40
1608,00	1373,74
1609,00	1381,07
1610,00	1363,41
1611,00	1425,34
1612,00	1373,37
1613,00	1396,59
1614,00	1375,35
1615,00	1380,62
1616,00	1410,36
1617,00	1394,32
1618,00	1409,19
1619,00	1388,37
1620,00	1423,43
1621,00	1403,48
1622,00	1388,73
1623,00	1427,09
1624,00	1413,33
1625,00	1388,62
1626,00	1455,02
1627,00	1394,06
1628,00	1391,45
1629,00	1596,23
1630,00	1406,57
1631,00	1380,28
1632,00	1404,13
1633,00	1385,02
1634,00	1395,32
1635,00	1380,96
1636,00	1386,46
1637,00	1381,69
1638,00	1367,62
1639,00	1366,39
1640,00	1399,79
1641,00	1427,69
1642,00	1428,03
1643,00	1376,76
1644,00	1464,29
1645,00	1408,02
1646,00	1381,34
1647,00	1414,47
1648,00	1394,66
1649,00	1385,38
1650,00	1469,66
1651,00	1424,49
1652,00	1370,25
1653,00	1379,92
1654,00	1387,80
1655,00	1384,60
1656,00	1377,20
1657,00	1435,73
1658,00	1375,07
1659,00	1409,67
1660,00	1409,54
1661,00	1415,85
1662,00	1393,28
1663,00	1411,56
1664,00	1399,59
1665,00	1374,10
1666,00	1396,21
1667,00	1451,60
1668,00	1370,29
1669,00	1376,66
1670,00	1401,53
1671,00	1373,41
1672,00	1362,60
1673,00	1413,23
1674,00	1406,84
1675,00	1405,59
1676,00	1399,24
1677,00	1396,22
1678,00	1408,42
1679,00	1400,31
1680,00	1406,72
1681,00	1409,53
1682,00	1482,51
1683,00	1408,59
1684,00	1427,24
1685,00	1407,79
1686,00	1369,49
1687,00	1372,05
1688,00	1411,74
1689,00	1372,26
1690,00	1377,28
1691,00	1372,45
1692,00	1373,76
1693,00	1433,96
1694,00	1375,15
1695,00	1388,09
1696,00	1389,54
1697,00	1395,50
1698,00	1370,86
1699,00	1396,22
1700,00	1395,23
1701,00	1424,60
1702,00	1374,38
1703,00	1367,26
1704,00	1372,78
1705,00	1402,59
1706,00	1373,53
1707,00	1374,42
1708,00	1373,45
1709,00	1409,03
1710,00	1389,95
1711,00	1368,49
1712,00	1386,73
1713,00	1449,87
1714,00	1403,42
1715,00	1386,88
1716,00	1436,29
1717,00	1387,59
1718,00	1443,09
1719,00	1420,55
1720,00	1377,68
1721,00	1400,01
1722,00	1378,55
1723,00	1415,79
1724,00	1382,96
1725,00	1393,21
1726,00	1394,81
1727,00	1375,79
1728,00	1431,18
1729,00	1367,57
1730,00	1456,90
1731,00	1405,74
1732,00	1465,96
1733,00	1403,30
1734,00	1367,73
1735,00	1386,27
1736,00	1379,83
1737,00	1367,58
1738,00	1385,57
1739,00	1413,88
1740,00	1412,47
1741,00	1471,32
1742,00	1401,37
1743,00	1373,24
1744,00	1374,43
1745,00	1372,36
1746,00	1380,51
1747,00	1390,04
1748,00	1409,40
1749,00	1450,65
1750,00	1414,20
1751,00	1475,33
1752,00	1384,39
1753,00	1371,54
1754,00	1382,77
1755,00	1393,47
1756,00	1382,55
1757,00	1435,94
1758,00	1377,79
1759,00	1369,91
1760,00	1376,10
1761,00	1402,51
1762,00	1394,08
1763,00	1366,74
1764,00	1409,91
1765,00	1376,85
1766,00	1372,72
1767,00	1370,15
1768,00	1375,25
1769,00	1397,67
1770,00	1371,37
1771,00	1381,89
1772,00	1453,79
1773,00	1375,40
1774,00	1360,90
1775,00	1375,86
1776,00	1384,09
1777,00	1359,99
1778,00	1373,16
1779,00	1367,16
1780,00	1365,94
1781,00	1365,56
1782,00	1370,58
1783,00	1394,21
1784,00	1392,95
1785,00	1387,39
1786,00	1401,85
1787,00	1375,93
1788,00	1395,14
1789,00	1396,13
1790,00	1424,23
1791,00	1373,28
1792,00	1398,65
1793,00	1378,99
1794,00	1367,54
1795,00	1374,57
1796,00	1366,73
1797,00	1364,14
1798,00	1380,91
1799,00	1371,24
1800,00	1412,53
1801,00	1393,66
1802,00	1431,03
1803,00	1389,72
1804,00	1410,27
1805,00	1395,20
1806,00	1400,81
1807,00	1388,88
1808,00	1371,37
1809,00	1391,26
1810,00	1411,71
1811,00	1393,50
1812,00	1377,42
1813,00	1377,43
1814,00	1391,62
1815,00	1405,07
1816,00	1484,91
1817,00	1384,80
1818,00	1585,47
1819,00	1434,54
1820,00	1419,46
1821,00	1373,71
1822,00	1362,36
1823,00	1370,58
1824,00	1389,60
1825,00	1447,14
1826,00	1375,26
1827,00	1437,78
1828,00	1464,96
1829,00	1387,52
1830,00	1410,82
1831,00	1374,64
1832,00	1363,37
1833,00	1359,29
1834,00	1371,90
1835,00	1388,38
1836,00	1366,00
1837,00	1368,14
1838,00	1391,10
1839,00	1432,42
1840,00	1471,31
1841,00	1402,37
1842,00	1408,75
1843,00	1410,42
1844,00	1459,58
1845,00	1406,56
1846,00	1370,65
1847,00	1375,63
1848,00	1399,77
1849,00	1386,27
1850,00	1396,46
1851,00	1408,80
1852,00	1368,49
1853,00	1370,55
1854,00	1377,68
1855,00	1370,51
1856,00	1367,62
1857,00	1379,42
1858,00	1450,75
1859,00	1365,85
1860,00	1392,22
1861,00	1539,45
1862,00	1381,55
1863,00	1378,75
1864,00	1368,17
1865,00	1390,21
1866,00	1411,97
1867,00	1372,67
1868,00	1392,13
1869,00	1369,10
1870,00	1382,06
1871,00	1368,69
1872,00	1392,97
1873,00	1386,93
1874,00	1401,07
1875,00	1380,66
1876,00	1366,18
1877,00	1390,80
1878,00	1429,92
1879,00	1411,29
1880,00	1361,63
1881,00	1395,70
1882,00	1378,47
1883,00	1375,17
1884,00	1370,12
1885,00	1393,09
1886,00	1394,14
1887,00	1363,26
1888,00	1372,05
1889,00	1395,58
1890,00	1366,65
1891,00	1404,98
1892,00	1429,37
1893,00	1381,73
1894,00	1409,26
1895,00	1394,21
1896,00	1416,79
1897,00	1484,74
1898,00	1381,65
1899,00	1389,14
1900,00	1380,49
1901,00	1394,87
1902,00	1384,35
1903,00	1443,30
1904,00	1397,86
1905,00	1558,43
1906,00	1382,13
1907,00	1371,23
1908,00	1538,65
1909,00	1380,71
1910,00	1373,04
1911,00	1391,18
1912,00	1398,90
1913,00	1443,88
1914,00	1381,52
1915,00	1380,43
1916,00	1400,78
1917,00	1393,23
1918,00	1386,25
1919,00	1390,60
1920,00	1370,43
1921,00	1422,64
1922,00	1385,81
1923,00	1389,18
1924,00	1395,15
1925,00	1368,81
1926,00	1389,22
1927,00	1413,58
1928,00	1431,38
1929,00	1404,59
1930,00	1373,22
1931,00	1408,85
1932,00	1476,31
1933,00	1398,71
1934,00	1370,52
1935,00	1375,23
1936,00	1392,05
1937,00	1371,43
1938,00	1391,73
1939,00	1375,48
1940,00	1458,36
1941,00	1372,72
1942,00	1380,33
1943,00	1373,91
1944,00	1397,63
1945,00	1378,56
1946,00	1359,11
1947,00	1364,57
1948,00	1464,40
1949,00	1372,02
1950,00	1403,55
1951,00	1373,59
1952,00	1381,54
1953,00	1362,99
1954,00	1406,42
1955,00	1378,24
1956,00	1381,22
1957,00	1393,16
1958,00	1362,56
1959,00	1382,33
1960,00	1362,14
1961,00	1415,98
1962,00	1362,39
1963,00	1401,56
1964,00	1366,48
1965,00	1397,50
1966,00	1366,34
1967,00	1417,33
1968,00	1371,49
1969,00	1364,64
1970,00	1388,57
1971,00	1413,47
1972,00	1386,09
1973,00	1402,99
1974,00	1393,48
1975,00	1401,99
1976,00	1398,67
1977,00	1387,59
1978,00	1388,65
1979,00	1393,14
1980,00	1560,21
1981,00	1395,54
1982,00	1367,88
1983,00	1383,34
1984,00	1386,40
1985,00	1436,22
1986,00	1365,47
1987,00	1366,91
1988,00	1375,06
1989,00	1384,19
1990,00	1441,10
1991,00	1403,40
1992,00	1409,33
1993,00	1490,04
1994,00	1400,47
1995,00	1367,69
1996,00	1397,47
1997,00	1388,61
1998,00	1397,08
1999,00	1362,32
2000,00	1358,90
2001,00	1379,81
2002,00	1430,62
2003,00	1358,57
2004,00	1403,52
2005,00	1362,49
2006,00	1449,07
2007,00	1379,17
2008,00	1358,94
2009,00	1438,74
2010,00	1369,43
2011,00	1359,40
2012,00	1382,30
2013,00	1377,89
2014,00	1383,90
2015,00	1369,24
2016,00	1366,70
2017,00	1377,87
2018,00	1385,85
2019,00	1367,13
2020,00	1367,34
2021,00	1394,81
2022,00	1387,79
2023,00	1379,80
2024,00	1374,36
2025,00	1422,64
2026,00	1373,71
2027,00	1364,41
2028,00	1399,12
2029,00	1370,97
2030,00	1367,32
2031,00	1369,92
2032,00	1362,05
2033,00	1388,69
2034,00	1432,28
2035,00	1395,15
2036,00	1389,49
2037,00	1373,24
2038,00	1380,73
2039,00	1376,87
2040,00	1391,77
2041,00	1389,08
2042,00	1365,39
2043,00	1381,64
2044,00	1399,66
2045,00	1370,39
2046,00	1370,39
2047,00	1370,39
>>>>>End Processed Spectral Data<<<<<
