SpectraSuite Datei
++++++++++++++++++++++++++++++++++++
Datum: Thu Sep 19 16:03:02 CEST 2024
Benutzer: Student
Dark-Spektrum vorhanden: Nein
Referenz-Spektrum vorhanden: Nein
Zahl der probierten Teilspektren: 1
Spektrometer: USB2+H15728
Integrationszeit (usec): 800000 (USB2+H15728)
Spektren Durchschnitt berechnet: 20 (USB2+H15728)
Boxcar Glättung: 0 (USB2+H15728)
Dunkelstromkorrektur: Nein (USB2+H15728)
Puls/Lampe aktiviert: Nein (USB2+H15728)
Correct for Detector Non-linearity: Nein (USB2+H15728)
Streulichtkorrektur: Nein (USB2+H15728)
Anzahl Pixel in verarbeitetem Spektrum: 2048
>>>>>Begin Processed Spectral Data<<<<<
0,00	985,37
1,00	985,37
2,00	985,37
3,00	971,91
4,00	1052,30
5,00	1041,54
6,00	1030,19
7,00	1039,55
8,00	1135,86
9,00	1081,44
10,00	1095,25
11,00	1157,39
12,00	1110,12
13,00	1316,20
14,00	1126,27
15,00	1188,88
16,00	1193,32
17,00	1280,51
18,00	1206,55
19,00	1341,60
20,00	1232,76
21,00	1256,87
22,00	1298,88
23,00	1342,77
24,00	1285,54
25,00	1339,02
26,00	1359,73
27,00	1445,51
28,00	1366,76
29,00	1363,25
30,00	1416,84
31,00	1383,02
32,00	1547,68
33,00	1412,51
34,00	1433,81
35,00	1438,38
36,00	1441,30
37,00	1382,32
38,00	1403,03
39,00	1555,75
40,00	1400,11
41,00	1501,45
42,00	1422,69
43,00	1465,88
44,00	1397,77
45,00	1402,10
46,00	1371,55
47,00	1469,62
48,00	1408,30
49,00	1523,45
50,00	1408,53
51,00	1450,78
52,00	1410,17
53,00	1516,32
54,00	1412,63
55,00	1393,91
56,00	1483,43
57,00	1421,29
58,00	1383,72
59,00	1404,09
60,00	1331,41
61,00	1407,25
62,00	1376,35
63,00	1352,36
64,00	1359,38
65,00	1343,47
66,00	1388,41
67,00	1364,88
68,00	1393,91
69,00	1362,78
70,00	1790,28
71,00	1413,45
72,00	1373,31
73,00	1369,45
74,00	1372,14
75,00	1347,21
76,00	1344,29
77,00	1407,60
78,00	1385,36
79,00	1380,68
80,00	1371,44
81,00	1330,36
82,00	1415,56
83,00	1326,62
84,00	1510,00
85,00	1411,69
86,00	1561,96
87,00	1527,20
88,00	1336,80
89,00	1327,43
90,00	1393,20
91,00	1487,41
92,00	1396,36
93,00	1442,47
94,00	1366,87
95,00	1357,04
96,00	1351,19
97,00	1724,27
98,00	1389,93
99,00	1361,84
100,00	1414,50
101,00	1439,78
102,00	1361,14
103,00	1376,12
104,00	1382,67
105,00	1462,02
106,00	1412,51
107,00	1436,27
108,00	1416,38
109,00	1382,55
110,00	1530,13
111,00	1451,72
112,00	1383,02
113,00	1428,19
114,00	1372,37
115,00	1377,29
116,00	1390,63
117,00	1359,62
118,00	1389,34
119,00	1559,15
120,00	1401,63
121,00	1367,11
122,00	1418,83
123,00	1366,40
124,00	1364,53
125,00	1367,11
126,00	1383,84
127,00	1418,83
128,00	1393,55
129,00	1429,37
130,00	1408,42
131,00	1458,15
132,00	1375,88
133,00	1464,01
134,00	1403,62
135,00	1380,45
136,00	1377,99
137,00	1457,45
138,00	1543,35
139,00	1417,19
140,00	1414,74
141,00	1479,45
142,00	1394,26
143,00	1348,27
144,00	1394,49
145,00	1376,00
146,00	1391,68
147,00	1503,21
148,00	1764,30
149,00	1470,09
150,00	1351,07
151,00	1430,30
152,00	1362,89
153,00	1381,74
154,00	1377,29
155,00	1354,59
156,00	1445,16
157,00	1386,42
158,00	1417,31
159,00	1458,86
160,00	1447,74
161,00	1484,60
162,00	1347,21
163,00	1384,08
164,00	1371,67
165,00	1353,30
166,00	1386,18
167,00	1430,42
168,00	1351,19
169,00	1381,15
170,00	1387,12
171,00	1355,99
172,00	1460,03
173,00	1346,16
174,00	1380,33
175,00	1392,62
176,00	1389,58
177,00	1394,26
178,00	1416,73
179,00	1366,64
180,00	1414,39
181,00	1381,38
182,00	1361,26
183,00	1542,06
184,00	1363,48
185,00	1359,50
186,00	1361,72
187,00	1397,30
188,00	1459,68
189,00	1392,97
190,00	1340,89
191,00	1350,49
192,00	1423,28
193,00	1378,34
194,00	1401,51
195,00	1438,26
196,00	1436,39
197,00	1413,33
198,00	1526,15
199,00	1378,22
200,00	1356,57
201,00	1453,59
202,00	1411,69
203,00	1406,43
204,00	1393,20
205,00	1425,39
206,00	1382,32
207,00	1398,59
208,00	1400,46
209,00	1405,96
210,00	1444,46
211,00	1454,06
212,00	1360,79
213,00	1423,63
214,00	1424,68
215,00	1409,82
216,00	1378,22
217,00	1397,65
218,00	1476,64
219,00	1386,88
220,00	1516,08
221,00	1420,24
222,00	1446,10
223,00	1399,64
224,00	1411,11
225,00	1350,02
226,00	1414,03
227,00	1360,90
228,00	1378,58
229,00	1413,80
230,00	1380,92
231,00	1437,67
232,00	1431,35
233,00	1404,09
234,00	1421,29
235,00	1405,73
236,00	1539,72
237,00	1400,11
238,00	1376,12
239,00	1376,00
240,00	1429,72
241,00	1444,23
242,00	1382,79
243,00	1440,13
244,00	1405,02
245,00	1358,56
246,00	1370,03
247,00	1404,09
248,00	1430,54
249,00	1446,92
250,00	1474,89
251,00	1394,37
252,00	1455,35
253,00	1418,48
254,00	1451,95
255,00	1379,04
256,00	1416,96
257,00	1401,40
258,00	1400,81
259,00	1383,84
260,00	1363,48
261,00	1399,41
262,00	1359,62
263,00	1381,03
264,00	1420,35
265,00	1410,64
266,00	1384,08
267,00	1370,73
268,00	1434,63
269,00	1418,01
270,00	1398,70
271,00	1454,06
272,00	1434,16
273,00	1403,85
274,00	1381,74
275,00	1407,36
276,00	1373,43
277,00	1422,69
278,00	1388,29
279,00	1441,07
280,00	1379,86
281,00	1401,51
282,00	1383,26
283,00	1417,78
284,00	1412,98
285,00	1410,99
286,00	1434,98
287,00	1400,11
288,00	1356,93
289,00	1394,02
290,00	1473,25
291,00	1381,97
292,00	1452,42
293,00	1395,08
294,00	1414,97
295,00	1409,47
296,00	1362,89
297,00	1362,89
298,00	1417,31
299,00	1408,65
300,00	1409,12
301,00	1424,57
302,00	1391,33
303,00	1445,28
304,00	1382,32
305,00	1453,36
306,00	1420,47
307,00	1377,17
308,00	1411,34
309,00	1398,00
310,00	1385,25
311,00	1374,01
312,00	1398,47
313,00	1486,24
314,00	1438,26
315,00	1382,91
316,00	1416,84
317,00	1354,47
318,00	1366,99
319,00	1398,12
320,00	1383,26
321,00	1376,70
322,00	1370,27
323,00	1469,04
324,00	1400,58
325,00	1456,16
326,00	1374,36
327,00	1407,95
328,00	1415,09
329,00	1422,11
330,00	1392,85
331,00	1389,93
332,00	1379,04
333,00	1428,43
334,00	1394,37
335,00	1409,70
336,00	1410,41
337,00	1402,21
338,00	1445,05
339,00	1364,30
340,00	1359,73
341,00	1383,61
342,00	1364,77
343,00	1477,70
344,00	1541,83
345,00	1387,35
346,00	1354,12
347,00	1429,01
348,00	1350,61
349,00	1484,95
350,00	1395,08
351,00	1369,21
352,00	1545,34
353,00	1442,24
354,00	1353,30
355,00	1381,50
356,00	1409,35
357,00	1454,64
358,00	1371,32
359,00	1375,06
360,00	1418,48
361,00	1402,21
362,00	1482,14
363,00	1430,07
364,00	1471,26
365,00	1394,84
366,00	1423,40
367,00	1391,92
368,00	1396,48
369,00	1383,49
370,00	1364,06
371,00	1366,40
372,00	1481,09
373,00	1367,46
374,00	1398,82
375,00	1392,74
376,00	1366,05
377,00	1865,17
378,00	1411,23
379,00	1378,22
380,00	1367,46
381,00	1541,71
382,00	1451,37
383,00	1389,22
384,00	1370,03
385,00	1367,93
386,00	1419,07
387,00	1413,22
388,00	1438,03
389,00	1469,27
390,00	1428,55
391,00	1405,02
392,00	1355,64
393,00	1417,78
394,00	1415,91
395,00	1383,61
396,00	1439,55
397,00	1384,66
398,00	1426,79
399,00	1377,76
400,00	1436,85
401,00	1374,95
402,00	1381,50
403,00	1389,58
404,00	1400,23
405,00	1432,76
406,00	1372,26
407,00	1456,87
408,00	1389,81
409,00	1476,41
410,00	1422,46
411,00	1392,85
412,00	1373,19
413,00	1368,28
414,00	1520,18
415,00	1443,53
416,00	1474,54
417,00	1390,75
418,00	1384,89
419,00	1384,31
420,00	1446,92
421,00	1392,27
422,00	1429,01
423,00	1376,12
424,00	1381,03
425,00	1370,97
426,00	1358,45
427,00	1389,22
428,00	1384,54
429,00	1368,16
430,00	1366,52
431,00	1372,61
432,00	1374,60
433,00	1355,76
434,00	1473,13
435,00	1434,16
436,00	1503,21
437,00	1431,35
438,00	1389,34
439,00	1392,27
440,00	1414,03
441,00	1391,80
442,00	1450,55
443,00	1386,18
444,00	1377,52
445,00	1388,64
446,00	1441,30
447,00	1403,50
448,00	1479,22
449,00	1391,57
450,00	1359,03
451,00	1511,05
452,00	1486,36
453,00	1392,85
454,00	1425,97
455,00	1379,98
456,00	1409,24
457,00	1648,09
458,00	1384,31
459,00	1377,41
460,00	1376,94
461,00	1356,22
462,00	1363,71
463,00	1399,41
464,00	1405,61
465,00	1363,95
466,00	1428,08
467,00	1414,15
468,00	1376,24
469,00	1417,43
470,00	1478,98
471,00	1415,79
472,00	1492,09
473,00	1361,72
474,00	1375,06
475,00	1419,77
476,00	1352,48
477,00	1369,21
478,00	1447,86
479,00	1414,85
480,00	1407,72
481,00	1354,70
482,00	1402,80
483,00	1498,18
484,00	1402,33
485,00	1486,24
486,00	1354,94
487,00	1380,56
488,00	1424,22
489,00	1373,66
490,00	1429,48
491,00	1429,95
492,00	1413,45
493,00	1367,34
494,00	1407,25
495,00	1495,02
496,00	1429,83
497,00	1384,54
498,00	1414,15
499,00	1352,36
500,00	1342,30
501,00	1377,05
502,00	1412,75
503,00	1393,09
504,00	1412,51
505,00	1434,87
506,00	1473,02
507,00	1473,60
508,00	1478,75
509,00	1370,38
510,00	1379,98
511,00	1433,58
512,00	1421,88
513,00	1452,54
514,00	1575,77
515,00	1405,02
516,00	1399,64
517,00	1384,89
518,00	1387,94
519,00	1480,51
520,00	1469,86
521,00	1362,31
522,00	1434,75
523,00	1544,29
524,00	1419,30
525,00	1368,51
526,00	1371,44
527,00	1389,46
528,00	1426,91
529,00	1411,46
530,00	1411,23
531,00	1407,60
532,00	1363,60
533,00	1436,74
534,00	1388,76
535,00	1433,46
536,00	1434,40
537,00	1438,26
538,00	1472,08
539,00	1418,72
540,00	1383,49
541,00	1441,89
542,00	1358,21
543,00	1417,78
544,00	1428,31
545,00	1389,69
546,00	1368,98
547,00	1452,54
548,00	1401,51
549,00	1362,54
550,00	1396,83
551,00	1398,47
552,00	1580,21
553,00	1451,02
554,00	1431,47
555,00	1467,52
556,00	1380,21
557,00	1402,68
558,00	1364,06
559,00	1390,63
560,00	1484,37
561,00	1492,09
562,00	1449,03
563,00	1398,12
564,00	1406,66
565,00	1436,85
566,00	1400,34
567,00	1425,39
568,00	1418,83
569,00	1397,07
570,00	1427,61
571,00	1411,58
572,00	1370,97
573,00	1399,87
574,00	1389,22
575,00	1434,16
576,00	1474,30
577,00	1415,56
578,00	1370,85
579,00	1378,22
580,00	1408,30
581,00	1427,84
582,00	1376,47
583,00	1384,43
584,00	1370,62
585,00	1466,70
586,00	1375,65
587,00	1414,27
588,00	1388,76
589,00	1391,68
590,00	1451,95
591,00	1374,83
592,00	1422,23
593,00	1431,71
594,00	1380,56
595,00	1399,17
596,00	1439,43
597,00	1412,16
598,00	1358,33
599,00	1418,95
600,00	1410,41
601,00	3938,77
602,00	1586,53
603,00	1417,66
604,00	1399,17
605,00	1424,10
606,00	1412,05
607,00	1381,85
608,00	1396,95
609,00	1415,09
610,00	1403,03
611,00	1368,28
612,00	1434,75
613,00	1375,42
614,00	1431,00
615,00	1408,42
616,00	1431,47
617,00	1461,55
618,00	1417,43
619,00	1364,06
620,00	1385,60
621,00	1408,30
622,00	1382,09
623,00	1395,31
624,00	1362,19
625,00	1551,78
626,00	1372,72
627,00	1463,54
628,00	1399,99
629,00	1427,61
630,00	1383,49
631,00	1366,76
632,00	1421,17
633,00	1358,92
634,00	1403,85
635,00	1474,42
636,00	1414,62
637,00	1407,25
638,00	1380,21
639,00	1396,83
640,00	1390,04
641,00	1398,12
642,00	1436,27
643,00	1382,67
644,00	1368,39
645,00	1402,68
646,00	1363,71
647,00	1371,32
648,00	1374,36
649,00	1375,77
650,00	1390,51
651,00	1392,97
652,00	1417,78
653,00	1394,02
654,00	1392,74
655,00	1381,85
656,00	1439,31
657,00	1411,46
658,00	1466,35
659,00	1440,25
660,00	1715,96
661,00	1467,05
662,00	1409,00
663,00	1432,88
664,00	1429,95
665,00	1404,32
666,00	1473,84
667,00	1390,04
668,00	1357,74
669,00	1440,72
670,00	1437,79
671,00	1417,08
672,00	1402,21
673,00	1454,17
674,00	1411,93
675,00	1374,83
676,00	1494,78
677,00	1403,62
678,00	1388,87
679,00	1395,43
680,00	1394,61
681,00	1389,46
682,00	1429,48
683,00	1388,05
684,00	1394,37
685,00	1426,44
686,00	1436,04
687,00	1486,47
688,00	1441,30
689,00	1626,32
690,00	1767,46
691,00	1753,88
692,00	1615,09
693,00	1525,21
694,00	1426,44
695,00	1513,86
696,00	1448,67
697,00	1412,86
698,00	1429,01
699,00	1664,82
700,00	1420,82
701,00	1472,43
702,00	1471,38
703,00	1416,49
704,00	1493,73
705,00	1414,27
706,00	1464,36
707,00	1427,02
708,00	1475,01
709,00	1408,89
710,00	1375,53
711,00	1471,49
712,00	1411,69
713,00	1406,31
714,00	1416,84
715,00	1400,11
716,00	1442,71
717,00	1441,89
718,00	1410,99
719,00	1379,28
720,00	1489,52
721,00	1443,53
722,00	1427,26
723,00	1598,47
724,00	1510,58
725,00	1479,34
726,00	1449,84
727,00	1412,75
728,00	1442,00
729,00	1558,45
730,00	1400,46
731,00	1441,30
732,00	1436,74
733,00	1403,27
734,00	1513,04
735,00	1432,76
736,00	1407,83
737,00	1396,60
738,00	1404,09
739,00	1443,06
740,00	1455,58
741,00	1498,76
742,00	1629,01
743,00	1484,60
744,00	1468,45
745,00	1440,72
746,00	1488,70
747,00	1474,07
748,00	1558,33
749,00	1593,79
750,00	1528,60
751,00	1600,58
752,00	1819,42
753,00	2050,66
754,00	2334,68
755,00	2792,61
756,00	3301,91
757,00	4525,31
758,00	6957,71
759,00	7721,90
760,00	5764,62
761,00	5664,56
762,00	3890,20
763,00	2902,73
764,00	2237,32
765,00	1956,92
766,00	1667,98
767,00	1591,80
768,00	1494,55
769,00	1459,09
770,00	1509,76
771,00	1462,95
772,00	1466,81
773,00	1484,25
774,00	1482,85
775,00	1487,88
776,00	1426,91
777,00	1443,99
778,00	1445,28
779,00	1420,47
780,00	1439,55
781,00	1376,70
782,00	1492,91
783,00	1435,80
784,00	1486,01
785,00	1572,72
786,00	1447,97
787,00	1442,82
788,00	1452,19
789,00	1447,86
790,00	1444,70
791,00	1438,73
792,00	1447,50
793,00	1466,81
794,00	1522,17
795,00	1589,46
796,00	1575,88
797,00	1594,26
798,00	1544,05
799,00	1488,93
800,00	1495,84
801,00	1496,54
802,00	1576,70
803,00	1510,82
804,00	1455,23
805,00	1428,08
806,00	1445,75
807,00	1415,32
808,00	1400,34
809,00	1397,88
810,00	1439,78
811,00	1401,86
812,00	1469,62
813,00	1427,02
814,00	1472,55
815,00	1425,04
816,00	1489,87
817,00	1460,96
818,00	1416,26
819,00	1483,78
820,00	1411,34
821,00	1489,28
822,00	1429,83
823,00	1416,02
824,00	1446,69
825,00	1449,14
826,00	1445,98
827,00	1552,71
828,00	1523,57
829,00	1706,02
830,00	1836,74
831,00	2496,88
832,00	2411,34
833,00	2526,73
834,00	2559,84
835,00	2054,87
836,00	1832,52
837,00	1696,77
838,00	1545,57
839,00	1504,50
840,00	1453,24
841,00	4314,43
842,00	1619,65
843,00	1521,23
844,00	1460,96
845,00	1527,43
846,00	1465,06
847,00	1409,12
848,00	1433,81
849,00	1410,17
850,00	1447,15
851,00	1407,72
852,00	1372,49
853,00	1450,78
854,00	1414,03
855,00	1405,02
856,00	1390,75
857,00	1453,59
858,00	1420,59
859,00	1498,18
860,00	1482,85
861,00	1443,99
862,00	1415,91
863,00	1406,78
864,00	1444,81
865,00	1425,85
866,00	1521,82
867,00	1509,53
868,00	1534,46
869,00	1754,23
870,00	1619,88
871,00	1750,37
872,00	1655,11
873,00	1518,66
874,00	1471,38
875,00	1481,68
876,00	1450,20
877,00	1388,29
878,00	1422,81
879,00	1455,93
880,00	1452,42
881,00	1392,74
882,00	1475,36
883,00	1395,54
884,00	1377,87
885,00	1421,99
886,00	1420,35
887,00	1447,50
888,00	1394,14
889,00	1393,44
890,00	1482,14
891,00	1528,02
892,00	1442,82
893,00	1395,78
894,00	1368,04
895,00	1396,01
896,00	1407,83
897,00	1393,09
898,00	1451,72
899,00	1412,63
900,00	1443,29
901,00	1422,69
902,00	1413,68
903,00	1471,26
904,00	1474,19
905,00	1523,22
906,00	1698,88
907,00	1988,52
908,00	1955,52
909,00	1940,42
910,00	2084,01
911,00	1822,11
912,00	1702,04
913,00	1592,38
914,00	1498,65
915,00	1468,57
916,00	1504,61
917,00	1407,36
918,00	1362,89
919,00	1370,62
920,00	1403,97
921,00	1425,15
922,00	1440,60
923,00	1444,70
924,00	1422,46
925,00	1415,20
926,00	1436,50
927,00	1421,17
928,00	1420,47
929,00	1420,00
930,00	1405,61
931,00	1467,40
932,00	1387,59
933,00	1500,28
934,00	1387,00
935,00	1477,35
936,00	1426,44
937,00	1402,10
938,00	1377,41
939,00	1491,97
940,00	1392,03
941,00	1388,52
942,00	1432,52
943,00	1426,79
944,00	1603,27
945,00	1513,98
946,00	1615,67
947,00	1788,05
948,00	1735,16
949,00	1830,77
950,00	1780,21
951,00	1594,37
952,00	1521,82
953,00	1471,73
954,00	1452,07
955,00	1482,61
956,00	1397,88
957,00	1388,41
958,00	1424,57
959,00	1436,39
960,00	1366,64
961,00	1468,69
962,00	1397,88
963,00	1437,67
964,00	1621,76
965,00	1416,96
966,00	1437,21
967,00	1468,34
968,00	1399,64
969,00	1561,61
970,00	1422,23
971,00	1470,68
972,00	1417,78
973,00	1441,18
974,00	1394,73
975,00	1410,52
976,00	1387,47
977,00	1454,99
978,00	1423,40
979,00	1398,24
980,00	1393,32
981,00	1445,40
982,00	1399,76
983,00	1405,49
984,00	1443,99
985,00	1494,43
986,00	1588,40
987,00	1771,08
988,00	1796,95
989,00	1663,42
990,00	1742,06
991,00	1619,77
992,00	1568,51
993,00	1480,97
994,00	1429,48
995,00	1454,41
996,00	1407,13
997,00	1458,04
998,00	1421,29
999,00	1519,94
1000,00	1369,45
1001,00	1423,28
1002,00	1398,94
1003,00	1384,78
1004,00	1482,50
1005,00	1390,51
1006,00	1379,51
1007,00	1434,40
1008,00	1396,01
1009,00	1389,46
1010,00	1396,71
1011,00	1389,34
1012,00	1461,55
1013,00	1391,33
1014,00	1388,05
1015,00	1428,43
1016,00	1428,66
1017,00	1378,58
1018,00	1468,57
1019,00	1442,94
1020,00	1403,39
1021,00	1400,46
1022,00	1432,88
1023,00	1407,95
1024,00	1460,14
1025,00	1403,39
1026,00	1454,17
1027,00	1513,74
1028,00	1762,07
1029,00	1755,28
1030,00	1695,13
1031,00	1808,06
1032,00	1731,53
1033,00	1641,42
1034,00	1539,96
1035,00	1547,21
1036,00	1479,34
1037,00	1449,61
1038,00	1427,02
1039,00	1381,62
1040,00	1416,02
1041,00	1409,94
1042,00	1471,38
1043,00	1440,60
1044,00	1726,61
1045,00	1458,39
1046,00	1391,92
1047,00	1393,32
1048,00	1437,09
1049,00	1412,98
1050,00	1425,97
1051,00	1413,22
1052,00	1433,23
1053,00	1432,41
1054,00	1386,07
1055,00	1455,35
1056,00	1463,77
1057,00	1415,44
1058,00	1409,94
1059,00	1420,94
1060,00	1396,36
1061,00	1421,41
1062,00	1382,32
1063,00	1370,62
1064,00	1468,92
1065,00	1409,59
1066,00	1392,74
1067,00	1450,43
1068,00	1471,26
1069,00	1497,83
1070,00	1526,50
1071,00	1593,32
1072,00	1535,39
1073,00	1539,37
1074,00	1526,73
1075,00	1529,66
1076,00	1443,17
1077,00	1410,29
1078,00	1443,99
1079,00	1393,32
1080,00	1528,37
1081,00	1473,72
1082,00	1395,19
1083,00	1448,32
1084,00	1411,46
1085,00	1463,30
1086,00	1368,51
1087,00	1460,73
1088,00	1444,34
1089,00	1400,58
1090,00	1392,62
1091,00	1467,40
1092,00	1481,56
1093,00	1563,71
1094,00	1428,90
1095,00	1423,75
1096,00	1416,73
1097,00	1433,81
1098,00	1370,27
1099,00	1468,69
1100,00	1402,10
1101,00	1415,67
1102,00	1403,15
1103,00	1473,25
1104,00	1458,04
1105,00	1524,98
1106,00	1440,72
1107,00	1442,94
1108,00	1442,12
1109,00	1396,25
1110,00	1401,16
1111,00	1570,73
1112,00	1516,20
1113,00	1539,37
1114,00	1684,13
1115,00	1731,88
1116,00	1743,82
1117,00	1822,93
1118,00	1756,81
1119,00	1634,75
1120,00	1604,91
1121,00	1768,16
1122,00	1488,58
1123,00	1421,29
1124,00	1483,43
1125,00	1390,40
1126,00	1420,82
1127,00	1414,27
1128,00	1592,15
1129,00	1392,03
1130,00	1384,89
1131,00	1460,03
1132,00	1407,01
1133,00	1443,06
1134,00	1508,36
1135,00	1447,04
1136,00	1496,77
1137,00	1448,56
1138,00	1410,76
1139,00	1414,74
1140,00	1412,98
1141,00	1389,69
1142,00	1395,66
1143,00	1409,24
1144,00	1478,40
1145,00	1509,88
1146,00	1428,19
1147,00	1452,65
1148,00	1407,95
1149,00	1394,14
1150,00	1426,32
1151,00	1471,49
1152,00	1454,64
1153,00	1418,48
1154,00	1458,27
1155,00	1422,34
1156,00	1486,94
1157,00	1457,69
1158,00	1494,43
1159,00	1449,96
1160,00	1422,93
1161,00	1485,42
1162,00	1468,92
1163,00	1436,62
1164,00	1380,92
1165,00	1487,18
1166,00	1487,18
1167,00	1418,01
1168,00	1440,72
1169,00	1394,14
1170,00	1412,98
1171,00	1497,12
1172,00	1399,52
1173,00	1435,10
1174,00	1409,00
1175,00	1390,75
1176,00	1403,74
1177,00	1443,29
1178,00	1528,14
1179,00	1474,89
1180,00	1425,39
1181,00	1444,34
1182,00	1410,64
1183,00	1425,50
1184,00	1397,88
1185,00	1410,29
1186,00	1431,00
1187,00	1432,41
1188,00	1456,63
1189,00	1375,18
1190,00	1408,18
1191,00	1438,73
1192,00	1497,36
1193,00	1401,86
1194,00	1388,17
1195,00	1455,11
1196,00	1468,45
1197,00	1395,08
1198,00	1489,99
1199,00	1479,45
1200,00	1439,08
1201,00	1402,80
1202,00	1471,26
1203,00	1522,52
1204,00	1588,05
1205,00	1768,27
1206,00	1647,97
1207,00	1760,20
1208,00	1820,23
1209,00	1631,35
1210,00	1550,37
1211,00	1545,81
1212,00	1480,86
1213,00	1408,07
1214,00	1402,10
1215,00	1437,67
1216,00	1376,00
1217,00	1432,41
1218,00	1397,42
1219,00	1406,66
1220,00	1405,96
1221,00	1496,30
1222,00	1456,63
1223,00	1376,82
1224,00	1400,46
1225,00	1399,87
1226,00	1396,48
1227,00	1428,66
1228,00	1390,75
1229,00	1415,56
1230,00	1387,59
1231,00	1394,73
1232,00	1382,44
1233,00	1393,55
1234,00	1412,28
1235,00	1382,09
1236,00	1436,97
1237,00	1418,01
1238,00	1430,77
1239,00	1412,05
1240,00	1370,85
1241,00	1443,88
1242,00	1425,15
1243,00	1439,31
1244,00	1369,80
1245,00	1405,02
1246,00	1450,20
1247,00	1497,83
1248,00	1480,04
1249,00	1460,85
1250,00	1408,77
1251,00	1436,97
1252,00	1421,52
1253,00	1455,81
1254,00	1409,70
1255,00	1430,07
1256,00	1425,85
1257,00	1423,63
1258,00	1391,80
1259,00	1366,64
1260,00	1438,49
1261,00	1402,45
1262,00	1388,05
1263,00	1390,98
1264,00	1418,13
1265,00	1387,94
1266,00	1544,75
1267,00	1422,34
1268,00	1385,83
1269,00	1393,55
1270,00	1450,20
1271,00	1393,79
1272,00	1399,76
1273,00	1442,00
1274,00	1400,81
1275,00	1400,23
1276,00	1550,84
1277,00	1933,52
1278,00	1503,09
1279,00	1432,52
1280,00	1412,98
1281,00	1406,19
1282,00	1382,55
1283,00	1382,55
1284,00	1406,66
1285,00	1556,57
1286,00	1392,50
1287,00	1428,08
1288,00	1415,91
1289,00	1541,36
1290,00	1423,75
1291,00	1394,61
1292,00	1421,29
1293,00	1403,27
1294,00	1375,06
1295,00	1401,63
1296,00	1503,91
1297,00	1441,65
1298,00	1474,42
1299,00	1523,57
1300,00	1677,58
1301,00	1689,52
1302,00	1733,52
1303,00	1688,11
1304,00	1787,00
1305,00	1590,86
1306,00	1517,95
1307,00	1510,70
1308,00	1484,48
1309,00	1413,33
1310,00	1400,81
1311,00	1412,16
1312,00	1408,89
1313,00	1390,04
1314,00	1415,91
1315,00	1507,30
1316,00	1373,08
1317,00	1372,02
1318,00	1416,49
1319,00	1421,06
1320,00	1399,87
1321,00	1457,57
1322,00	1838,37
1323,00	1397,42
1324,00	1394,61
1325,00	1391,33
1326,00	1394,84
1327,00	1378,81
1328,00	1424,33
1329,00	1376,82
1330,00	1403,97
1331,00	1433,70
1332,00	1404,56
1333,00	1398,82
1334,00	1371,20
1335,00	1453,00
1336,00	1456,40
1337,00	1460,49
1338,00	1414,27
1339,00	1379,75
1340,00	1405,84
1341,00	1431,35
1342,00	1421,76
1343,00	1525,80
1344,00	1454,53
1345,00	1382,55
1346,00	1409,59
1347,00	1416,38
1348,00	1425,62
1349,00	1384,31
1350,00	1529,66
1351,00	1494,55
1352,00	1433,46
1353,00	1419,65
1354,00	1642,24
1355,00	1391,21
1356,00	1367,11
1357,00	1375,30
1358,00	1425,50
1359,00	1455,93
1360,00	1413,68
1361,00	1380,92
1362,00	1391,45
1363,00	1392,15
1364,00	1440,25
1365,00	1481,56
1366,00	1368,63
1367,00	1368,98
1368,00	1392,97
1369,00	1385,60
1370,00	1428,66
1371,00	1397,18
1372,00	1369,10
1373,00	1512,92
1374,00	1393,79
1375,00	1407,13
1376,00	1447,50
1377,00	1430,65
1378,00	1484,02
1379,00	1435,33
1380,00	1604,20
1381,00	1400,34
1382,00	1361,61
1383,00	1511,87
1384,00	1410,52
1385,00	1425,50
1386,00	1458,97
1387,00	1482,96
1388,00	1411,69
1389,00	1453,59
1390,00	1385,83
1391,00	1387,12
1392,00	1506,37
1393,00	1436,85
1394,00	1422,34
1395,00	1400,69
1396,00	1478,05
1397,00	1405,84
1398,00	1626,67
1399,00	1826,09
1400,00	1596,25
1401,00	1648,21
1402,00	1896,65
1403,00	1597,88
1404,00	1597,18
1405,00	1553,53
1406,00	1504,26
1407,00	1468,10
1408,00	1455,11
1409,00	1414,74
1410,00	1401,86
1411,00	2856,27
1412,00	1510,82
1413,00	1371,91
1414,00	1369,33
1415,00	1389,58
1416,00	1366,17
1417,00	1361,26
1418,00	1429,60
1419,00	1449,73
1420,00	1399,41
1421,00	1368,51
1422,00	1353,41
1423,00	1350,14
1424,00	1410,64
1425,00	1371,79
1426,00	1419,42
1427,00	1419,30
1428,00	1354,82
1429,00	1417,31
1430,00	1361,84
1431,00	1372,72
1432,00	1418,72
1433,00	1390,28
1434,00	1450,20
1435,00	1418,25
1436,00	1378,46
1437,00	1450,55
1438,00	1393,55
1439,00	1388,29
1440,00	1391,57
1441,00	1389,81
1442,00	1392,97
1443,00	1380,92
1444,00	1371,67
1445,00	1382,79
1446,00	1446,57
1447,00	1421,88
1448,00	1448,56
1449,00	1402,33
1450,00	1415,67
1451,00	1406,66
1452,00	1495,49
1453,00	1439,08
1454,00	1506,25
1455,00	1497,47
1456,00	1410,64
1457,00	1508,71
1458,00	1467,28
1459,00	1414,15
1460,00	1396,83
1461,00	1425,27
1462,00	1400,81
1463,00	1426,32
1464,00	1376,00
1465,00	1402,80
1466,00	1373,19
1467,00	1444,58
1468,00	1387,59
1469,00	1375,77
1470,00	1381,50
1471,00	1428,31
1472,00	1392,27
1473,00	1369,80
1474,00	1406,19
1475,00	1373,89
1476,00	1534,81
1477,00	1451,95
1478,00	1716,08
1479,00	1529,31
1480,00	1424,68
1481,00	1378,11
1482,00	1393,44
1483,00	1381,38
1484,00	1443,99
1485,00	1458,86
1486,00	1386,88
1487,00	1436,62
1488,00	1441,18
1489,00	1424,45
1490,00	1427,26
1491,00	1411,11
1492,00	1387,47
1493,00	1395,78
1494,00	1371,67
1495,00	1447,39
1496,00	1390,16
1497,00	1474,42
1498,00	1467,05
1499,00	1429,60
1500,00	1409,94
1501,00	1416,14
1502,00	1376,70
1503,00	1519,01
1504,00	1399,29
1505,00	1490,92
1506,00	1435,68
1507,00	1429,83
1508,00	1493,96
1509,00	1460,03
1510,00	1447,15
1511,00	1537,15
1512,00	1474,89
1513,00	1450,20
1514,00	1441,65
1515,00	1426,09
1516,00	1824,56
1517,00	1499,82
1518,00	1394,49
1519,00	1415,56
1520,00	1437,44
1521,00	1385,95
1522,00	1430,18
1523,00	1405,61
1524,00	1394,73
1525,00	1374,01
1526,00	1377,87
1527,00	1375,77
1528,00	1406,19
1529,00	1368,63
1530,00	1376,47
1531,00	1387,12
1532,00	1382,91
1533,00	1348,03
1534,00	1403,50
1535,00	1365,70
1536,00	1409,24
1537,00	1448,79
1538,00	1425,39
1539,00	1440,83
1540,00	1422,46
1541,00	1419,30
1542,00	1378,58
1543,00	1391,80
1544,00	1442,71
1545,00	1409,24
1546,00	1401,98
1547,00	1401,16
1548,00	1399,64
1549,00	1375,88
1550,00	1390,63
1551,00	1410,64
1552,00	1384,78
1553,00	1377,76
1554,00	1402,21
1555,00	1364,06
1556,00	1373,78
1557,00	1428,31
1558,00	1399,29
1559,00	1385,01
1560,00	1388,29
1561,00	1408,42
1562,00	1511,75
1563,00	1467,05
1564,00	1421,17
1565,00	1466,35
1566,00	1469,04
1567,00	1500,40
1568,00	1456,52
1569,00	1420,47
1570,00	1420,12
1571,00	1450,90
1572,00	1448,67
1573,00	1421,41
1574,00	1460,96
1575,00	1383,84
1576,00	1368,75
1577,00	1365,59
1578,00	1435,92
1579,00	1391,57
1580,00	1374,25
1581,00	1380,10
1582,00	1365,35
1583,00	1487,29
1584,00	1409,70
1585,00	1354,12
1586,00	1412,98
1587,00	1417,08
1588,00	1457,10
1589,00	1386,42
1590,00	1412,86
1591,00	1403,74
1592,00	1503,09
1593,00	1372,02
1594,00	1414,27
1595,00	1367,93
1596,00	1398,59
1597,00	1379,63
1598,00	1377,76
1599,00	1398,47
1600,00	1354,12
1601,00	1428,08
1602,00	1457,57
1603,00	1417,08
1604,00	1381,27
1605,00	1482,38
1606,00	1382,91
1607,00	1376,24
1608,00	1379,63
1609,00	1392,15
1610,00	1359,73
1611,00	1453,59
1612,00	1377,99
1613,00	1415,20
1614,00	1373,78
1615,00	1395,19
1616,00	1445,05
1617,00	1423,05
1618,00	1429,72
1619,00	1409,12
1620,00	1476,18
1621,00	1445,51
1622,00	1428,08
1623,00	1508,12
1624,00	1476,06
1625,00	1431,71
1626,00	1528,84
1627,00	1404,32
1628,00	1429,95
1629,00	1813,92
1630,00	1433,34
1631,00	1378,34
1632,00	1421,64
1633,00	1393,67
1634,00	1401,28
1635,00	1385,25
1636,00	1386,77
1637,00	1400,23
1638,00	1369,33
1639,00	1366,52
1640,00	1427,26
1641,00	1466,23
1642,00	1468,45
1643,00	1381,74
1644,00	1536,80
1645,00	1416,26
1646,00	1379,75
1647,00	1449,61
1648,00	1409,12
1649,00	1398,82
1650,00	1524,16
1651,00	1455,35
1652,00	1363,95
1653,00	1395,90
1654,00	1400,81
1655,00	1396,83
1656,00	1372,61
1657,00	1480,15
1658,00	1381,74
1659,00	1415,67
1660,00	1419,65
1661,00	1446,10
1662,00	1397,07
1663,00	1431,59
1664,00	1423,86
1665,00	1397,53
1666,00	1433,23
1667,00	1515,03
1668,00	1394,14
1669,00	1393,20
1670,00	1424,57
1671,00	1364,77
1672,00	1365,70
1673,00	1436,50
1674,00	1408,53
1675,00	1416,49
1676,00	1434,05
1677,00	1426,32
1678,00	1458,86
1679,00	1462,13
1680,00	1474,19
1681,00	1488,23
1682,00	1622,23
1683,00	1504,03
1684,00	1525,09
1685,00	1485,07
1686,00	1377,64
1687,00	1388,64
1688,00	1458,74
1689,00	1363,95
1690,00	1390,98
1691,00	1356,81
1692,00	1382,44
1693,00	1477,93
1694,00	1375,65
1695,00	1416,26
1696,00	1396,25
1697,00	1404,20
1698,00	1409,70
1699,00	1414,39
1700,00	1421,76
1701,00	1465,18
1702,00	1371,67
1703,00	1370,50
1704,00	1375,53
1705,00	1427,49
1706,00	1380,21
1707,00	1368,98
1708,00	1384,66
1709,00	1425,85
1710,00	1404,56
1711,00	1380,45
1712,00	1400,46
1713,00	1484,25
1714,00	1427,84
1715,00	1410,17
1716,00	1477,93
1717,00	1404,67
1718,00	1482,03
1719,00	1460,26
1720,00	1379,28
1721,00	1414,74
1722,00	1382,20
1723,00	1444,81
1724,00	1396,25
1725,00	1399,29
1726,00	1400,34
1727,00	1368,16
1728,00	1488,81
1729,00	1368,39
1730,00	1511,40
1731,00	1429,83
1732,00	1523,22
1733,00	1419,53
1734,00	1363,01
1735,00	1397,77
1736,00	1390,98
1737,00	1376,24
1738,00	1403,74
1739,00	1449,38
1740,00	1454,53
1741,00	1550,60
1742,00	1448,09
1743,00	1384,19
1744,00	1395,66
1745,00	1393,91
1746,00	1389,69
1747,00	1400,34
1748,00	1451,02
1749,00	1507,54
1750,00	1453,36
1751,00	1560,67
1752,00	1402,80
1753,00	1372,72
1754,00	1387,24
1755,00	1394,02
1756,00	1407,13
1757,00	1491,62
1758,00	1384,78
1759,00	1380,45
1760,00	1385,13
1761,00	1416,61
1762,00	1408,53
1763,00	1353,18
1764,00	1438,61
1765,00	1379,04
1766,00	1371,91
1767,00	1365,47
1768,00	1375,30
1769,00	1412,51
1770,00	1381,62
1771,00	1395,54
1772,00	1511,17
1773,00	1385,25
1774,00	1354,59
1775,00	1375,42
1776,00	1388,64
1777,00	1357,39
1778,00	1373,31
1779,00	1368,63
1780,00	1366,05
1781,00	1357,16
1782,00	1378,69
1783,00	1408,53
1784,00	1403,74
1785,00	1389,93
1786,00	1418,72
1787,00	1379,98
1788,00	1421,41
1789,00	1421,88
1790,00	1459,56
1791,00	1384,54
1792,00	1411,81
1793,00	1371,09
1794,00	1385,13
1795,00	1385,13
1796,00	1371,32
1797,00	1351,66
1798,00	1390,75
1799,00	1379,04
1800,00	1461,55
1801,00	1435,33
1802,00	1486,94
1803,00	1431,82
1804,00	1477,35
1805,00	1453,12
1806,00	1460,73
1807,00	1439,90
1808,00	1410,64
1809,00	1438,61
1810,00	1464,36
1811,00	1416,96
1812,00	1392,74
1813,00	1405,02
1814,00	1404,91
1815,00	1428,43
1816,00	1548,97
1817,00	1385,95
1818,00	1698,64
1819,00	1476,53
1820,00	1453,36
1821,00	1377,87
1822,00	1369,56
1823,00	1379,39
1824,00	1389,11
1825,00	1477,58
1826,00	1379,63
1827,00	1487,41
1828,00	1522,75
1829,00	1402,33
1830,00	1435,10
1831,00	1368,28
1832,00	1356,93
1833,00	1349,67
1834,00	1366,64
1835,00	1401,28
1836,00	1362,89
1837,00	1363,60
1838,00	1419,18
1839,00	1470,91
1840,00	1538,55
1841,00	1426,32
1842,00	1438,38
1843,00	1435,68
1844,00	1515,73
1845,00	1428,19
1846,00	1375,77
1847,00	1390,28
1848,00	1429,13
1849,00	1396,83
1850,00	1417,55
1851,00	1427,14
1852,00	1376,00
1853,00	1362,78
1854,00	1380,21
1855,00	1379,98
1856,00	1371,67
1857,00	1376,59
1858,00	1492,09
1859,00	1372,84
1860,00	1397,53
1861,00	1660,96
1862,00	1384,66
1863,00	1396,48
1864,00	1375,53
1865,00	1408,30
1866,00	1427,49
1867,00	1360,79
1868,00	1401,63
1869,00	1374,95
1870,00	1383,37
1871,00	1371,20
1872,00	1407,95
1873,00	1400,93
1874,00	1414,62
1875,00	1396,95
1876,00	1362,54
1877,00	1394,61
1878,00	1467,52
1879,00	1440,60
1880,00	1368,51
1881,00	1409,82
1882,00	1385,95
1883,00	1389,93
1884,00	1365,82
1885,00	1406,54
1886,00	1413,92
1887,00	1351,43
1888,00	1365,35
1889,00	1403,15
1890,00	1356,46
1891,00	1436,50
1892,00	1457,92
1893,00	1384,66
1894,00	1433,11
1895,00	1410,29
1896,00	1456,16
1897,00	1563,24
1898,00	1378,69
1899,00	1401,51
1900,00	1382,09
1901,00	1412,86
1902,00	1391,45
1903,00	1478,63
1904,00	1432,06
1905,00	1659,91
1906,00	1380,56
1907,00	1370,73
1908,00	1652,18
1909,00	1396,95
1910,00	1378,34
1911,00	1396,13
1912,00	1425,50
1913,00	1497,47
1914,00	1383,26
1915,00	1388,05
1916,00	1426,67
1917,00	1417,19
1918,00	1404,09
1919,00	1416,49
1920,00	1357,86
1921,00	1456,05
1922,00	1393,67
1923,00	1398,70
1924,00	1419,07
1925,00	1371,91
1926,00	1397,30
1927,00	1441,54
1928,00	1451,25
1929,00	1416,49
1930,00	1373,66
1931,00	1425,62
1932,00	1540,07
1933,00	1419,18
1934,00	1382,09
1935,00	1404,91
1936,00	1425,85
1937,00	1371,79
1938,00	1426,32
1939,00	1410,52
1940,00	1551,54
1941,00	1389,81
1942,00	1402,45
1943,00	1397,88
1944,00	1429,83
1945,00	1379,98
1946,00	1346,28
1947,00	1348,85
1948,00	1525,68
1949,00	1375,65
1950,00	1427,02
1951,00	1372,96
1952,00	1381,50
1953,00	1363,71
1954,00	1417,66
1955,00	1377,41
1956,00	1383,96
1957,00	1410,52
1958,00	1359,97
1959,00	1387,24
1960,00	1357,16
1961,00	1445,05
1962,00	1356,57
1963,00	1419,77
1964,00	1364,06
1965,00	1416,84
1966,00	1378,93
1967,00	1446,57
1968,00	1372,37
1969,00	1357,39
1970,00	1413,22
1971,00	1451,60
1972,00	1401,04
1973,00	1436,97
1974,00	1417,08
1975,00	1427,73
1976,00	1408,53
1977,00	1407,48
1978,00	1398,24
1979,00	1411,69
1980,00	1685,07
1981,00	1414,85
1982,00	1358,33
1983,00	1387,35
1984,00	1400,93
1985,00	1495,37
1986,00	1356,81
1987,00	1364,65
1988,00	1377,52
1989,00	1397,65
1990,00	1485,66
1991,00	1411,23
1992,00	1438,96
1993,00	1576,94
1994,00	1425,85
1995,00	1365,12
1996,00	1415,20
1997,00	1403,03
1998,00	1414,27
1999,00	1356,11
2000,00	1341,71
2001,00	1393,20
2002,00	1470,68
2003,00	1343,23
2004,00	1416,84
2005,00	1371,32
2006,00	1497,47
2007,00	1384,08
2008,00	1350,02
2009,00	1471,49
2010,00	1364,30
2011,00	1348,50
2012,00	1400,93
2013,00	1383,26
2014,00	1391,68
2015,00	1366,64
2016,00	1364,42
2017,00	1388,64
2018,00	1406,08
2019,00	1370,38
2020,00	1368,39
2021,00	1429,95
2022,00	1394,02
2023,00	1384,54
2024,00	1387,12
2025,00	1452,42
2026,00	1369,56
2027,00	1354,94
2028,00	1422,93
2029,00	1363,48
2030,00	1369,92
2031,00	1368,28
2032,00	1352,13
2033,00	1386,07
2034,00	1474,54
2035,00	1403,27
2036,00	1390,51
2037,00	1384,31
2038,00	1379,51
2039,00	1390,98
2040,00	1392,15
2041,00	1400,46
2042,00	1358,92
2043,00	1389,93
2044,00	1413,22
2045,00	1381,38
2046,00	1381,38
2047,00	1381,38
>>>>>End Processed Spectral Data<<<<<
