SpectraSuite Datei
++++++++++++++++++++++++++++++++++++
Datum: Thu Sep 19 15:57:42 CEST 2024
Benutzer: Student
Dark-Spektrum vorhanden: Nein
Referenz-Spektrum vorhanden: Nein
Zahl der probierten Teilspektren: 1
Spektrometer: USB2+H15728
Integrationszeit (usec): 800000 (USB2+H15728)
Spektren Durchschnitt berechnet: 20 (USB2+H15728)
Boxcar Glättung: 0 (USB2+H15728)
Dunkelstromkorrektur: Nein (USB2+H15728)
Puls/Lampe aktiviert: Nein (USB2+H15728)
Correct for Detector Non-linearity: Nein (USB2+H15728)
Streulichtkorrektur: Nein (USB2+H15728)
Anzahl Pixel in verarbeitetem Spektrum: 2048
>>>>>Begin Processed Spectral Data<<<<<
0,00	990,28
1,00	990,28
2,00	990,28
3,00	950,37
4,00	1048,09
5,00	1040,49
6,00	1032,88
7,00	1050,32
8,00	1137,62
9,00	1089,64
10,00	1094,55
11,00	1156,93
12,00	1110,12
13,00	1315,15
14,00	1141,36
15,00	1180,68
16,00	1181,62
17,00	1277,11
18,00	1199,99
19,00	1360,67
20,00	1234,75
21,00	1262,37
22,00	1293,38
23,00	1353,18
24,00	1301,57
25,00	1347,10
26,00	1375,18
27,00	1439,43
28,00	1371,20
29,00	1361,84
30,00	1404,91
31,00	1411,34
32,00	1527,90
33,00	1401,16
34,00	1434,87
35,00	1435,57
36,00	1423,86
37,00	1390,75
38,00	1424,45
39,00	1548,50
40,00	1393,79
41,00	1503,44
42,00	1430,77
43,00	1472,90
44,00	1400,23
45,00	1407,13
46,00	1371,91
47,00	1462,60
48,00	1411,11
49,00	1511,75
50,00	1403,85
51,00	1438,84
52,00	1393,91
53,00	1514,68
54,00	1418,48
55,00	1377,29
56,00	1472,67
57,00	1424,80
58,00	1409,47
59,00	1411,11
60,00	1342,41
61,00	1405,26
62,00	1373,54
63,00	1367,58
64,00	1362,31
65,00	1348,62
66,00	1372,84
67,00	1353,77
68,00	1377,29
69,00	1359,62
70,00	1780,80
71,00	1417,43
72,00	1354,12
73,00	1369,21
74,00	1355,76
75,00	1343,58
76,00	1354,94
77,00	1395,43
78,00	1372,84
79,00	1388,99
80,00	1380,33
81,00	1342,18
82,00	1405,84
83,00	1333,05
84,00	1518,77
85,00	1406,78
86,00	1553,06
87,00	1538,55
88,00	1344,99
89,00	1351,54
90,00	1371,32
91,00	1481,33
92,00	1407,48
93,00	1425,15
94,00	1359,97
95,00	1355,40
96,00	1365,47
97,00	1737,03
98,00	1400,69
99,00	1371,44
100,00	1403,03
101,00	1445,98
102,00	1378,34
103,00	1389,22
104,00	1361,49
105,00	1456,98
106,00	1404,91
107,00	1438,03
108,00	1425,62
109,00	1390,63
110,00	1519,71
111,00	1439,78
112,00	1389,46
113,00	1427,49
114,00	1377,87
115,00	1368,98
116,00	1375,42
117,00	1384,31
118,00	1390,28
119,00	1541,94
120,00	1384,89
121,00	1379,63
122,00	1402,10
123,00	1366,52
124,00	1354,47
125,00	1364,77
126,00	1384,31
127,00	1435,22
128,00	1402,33
129,00	1419,53
130,00	1411,34
131,00	1449,96
132,00	1381,97
133,00	1459,44
134,00	1409,12
135,00	1373,54
136,00	1360,79
137,00	1440,13
138,00	1518,07
139,00	1425,27
140,00	1410,99
141,00	1494,78
142,00	1401,28
143,00	1353,65
144,00	1401,16
145,00	1390,51
146,00	1385,95
147,00	1503,91
148,00	1665,88
149,00	1444,46
150,00	1361,49
151,00	1436,39
152,00	1376,70
153,00	1368,16
154,00	1379,51
155,00	1350,72
156,00	1443,88
157,00	1379,98
158,00	1434,05
159,00	1454,41
160,00	1446,69
161,00	1490,80
162,00	1370,03
163,00	1383,61
164,00	1373,19
165,00	1372,26
166,00	1386,88
167,00	1428,66
168,00	1352,83
169,00	1373,66
170,00	1384,54
171,00	1359,73
172,00	1475,47
173,00	1354,59
174,00	1387,35
175,00	1405,96
176,00	1386,30
177,00	1388,17
178,00	1425,62
179,00	1362,07
180,00	1423,40
181,00	1383,72
182,00	1367,34
183,00	1565,47
184,00	1351,19
185,00	1358,68
186,00	1365,00
187,00	1393,67
188,00	1468,45
189,00	1385,25
190,00	1352,36
191,00	1360,09
192,00	1423,75
193,00	1368,63
194,00	1389,69
195,00	1423,51
196,00	1452,30
197,00	1405,84
198,00	1533,64
199,00	1384,89
200,00	1355,05
201,00	1442,36
202,00	1423,16
203,00	1404,09
204,00	1397,77
205,00	1425,15
206,00	1397,77
207,00	1412,51
208,00	1418,13
209,00	1425,50
210,00	1437,21
211,00	1434,51
212,00	1363,25
213,00	1423,98
214,00	1425,62
215,00	1412,16
216,00	1402,80
217,00	1401,98
218,00	1489,87
219,00	1377,41
220,00	1532,35
221,00	1434,63
222,00	1458,74
223,00	1414,39
224,00	1402,80
225,00	1357,04
226,00	1406,78
227,00	1366,99
228,00	1382,55
229,00	1409,12
230,00	1385,13
231,00	1421,52
232,00	1410,41
233,00	1400,93
234,00	1415,44
235,00	1412,86
236,00	1537,73
237,00	1406,43
238,00	1354,00
239,00	1373,66
240,00	1438,61
241,00	1450,78
242,00	1386,77
243,00	1454,64
244,00	1399,17
245,00	1367,34
246,00	1362,78
247,00	1403,74
248,00	1431,71
249,00	1467,16
250,00	1473,02
251,00	1396,48
252,00	1467,87
253,00	1425,97
254,00	1443,17
255,00	1370,62
256,00	1421,52
257,00	1410,17
258,00	1385,01
259,00	1389,93
260,00	1366,40
261,00	1401,16
262,00	1346,51
263,00	1370,38
264,00	1436,27
265,00	1417,90
266,00	1390,04
267,00	1394,14
268,00	1447,86
269,00	1407,83
270,00	1402,33
271,00	1459,21
272,00	1434,51
273,00	1394,61
274,00	1384,66
275,00	1403,50
276,00	1373,89
277,00	1427,38
278,00	1406,43
279,00	1432,06
280,00	1368,75
281,00	1399,87
282,00	1375,65
283,00	1426,79
284,00	1418,13
285,00	1408,42
286,00	1448,32
287,00	1408,18
288,00	1363,60
289,00	1390,28
290,00	1465,53
291,00	1382,55
292,00	1441,54
293,00	1394,96
294,00	1423,40
295,00	1419,53
296,00	1359,15
297,00	1374,25
298,00	1409,70
299,00	1410,99
300,00	1406,90
301,00	1427,38
302,00	1388,41
303,00	1453,71
304,00	1382,09
305,00	1438,84
306,00	1416,73
307,00	1376,70
308,00	1392,62
309,00	1409,70
310,00	1401,63
311,00	1382,20
312,00	1414,03
313,00	1497,94
314,00	1429,37
315,00	1374,01
316,00	1398,00
317,00	1363,36
318,00	1376,94
319,00	1426,67
320,00	1394,61
321,00	1388,05
322,00	1375,53
323,00	1476,53
324,00	1409,12
325,00	1448,79
326,00	1366,64
327,00	1392,27
328,00	1428,43
329,00	1457,45
330,00	1383,84
331,00	1396,25
332,00	1374,48
333,00	1441,18
334,00	1410,64
335,00	1407,95
336,00	1425,50
337,00	1392,62
338,00	1458,50
339,00	1362,89
340,00	1373,43
341,00	1396,36
342,00	1372,26
343,00	1489,52
344,00	1550,84
345,00	1398,35
346,00	1367,22
347,00	1437,32
348,00	1355,99
349,00	1505,55
350,00	1397,18
351,00	1359,97
352,00	1544,17
353,00	1442,82
354,00	1361,26
355,00	1384,66
356,00	1407,48
357,00	1470,91
358,00	1383,26
359,00	1374,71
360,00	1424,57
361,00	1404,09
362,00	1460,14
363,00	1437,21
364,00	1465,88
365,00	1398,24
366,00	1417,43
367,00	1394,26
368,00	1383,84
369,00	1393,44
370,00	1365,82
371,00	1372,61
372,00	1491,86
373,00	1387,70
374,00	1405,37
375,00	1396,25
376,00	1370,38
377,00	1860,26
378,00	1411,58
379,00	1371,44
380,00	1375,42
381,00	1556,81
382,00	1445,63
383,00	1395,08
384,00	1371,32
385,00	1372,61
386,00	1401,40
387,00	1407,72
388,00	1407,13
389,00	1482,85
390,00	1424,80
391,00	1400,11
392,00	1383,72
393,00	1399,06
394,00	1403,50
395,00	1388,99
396,00	1446,80
397,00	1379,16
398,00	1435,80
399,00	1384,43
400,00	1438,26
401,00	1370,27
402,00	1398,24
403,00	1396,01
404,00	1415,67
405,00	1456,28
406,00	1381,27
407,00	1465,99
408,00	1386,53
409,00	1477,35
410,00	1419,53
411,00	1404,09
412,00	1366,87
413,00	1369,45
414,00	1516,43
415,00	1439,08
416,00	1490,10
417,00	1389,46
418,00	1381,85
419,00	1388,76
420,00	1447,50
421,00	1399,87
422,00	1440,13
423,00	1371,44
424,00	1366,40
425,00	1372,14
426,00	1369,56
427,00	1381,03
428,00	1390,86
429,00	1368,16
430,00	1362,19
431,00	1387,35
432,00	1368,75
433,00	1376,47
434,00	1468,57
435,00	1443,29
436,00	1501,57
437,00	1411,81
438,00	1398,35
439,00	1391,80
440,00	1420,94
441,00	1403,03
442,00	1445,98
443,00	1386,53
444,00	1372,14
445,00	1387,35
446,00	1430,30
447,00	1401,98
448,00	1501,57
449,00	1395,54
450,00	1368,16
451,00	1512,92
452,00	1476,53
453,00	1402,21
454,00	1439,20
455,00	1370,15
456,00	1400,69
457,00	1654,99
458,00	1407,01
459,00	1408,30
460,00	1389,11
461,00	1360,44
462,00	1371,44
463,00	1407,48
464,00	1421,64
465,00	1380,56
466,00	1422,11
467,00	1399,52
468,00	1375,42
469,00	1427,26
470,00	1483,78
471,00	1409,24
472,00	1495,60
473,00	1368,86
474,00	1366,76
475,00	1425,15
476,00	1385,13
477,00	1378,58
478,00	1457,10
479,00	1418,01
480,00	1413,22
481,00	1351,89
482,00	1394,37
483,00	1506,95
484,00	1396,01
485,00	1482,61
486,00	1359,97
487,00	1381,97
488,00	1429,60
489,00	1399,64
490,00	1418,83
491,00	1445,51
492,00	1415,20
493,00	1389,81
494,00	1406,43
495,00	1487,06
496,00	1420,00
497,00	1375,88
498,00	1398,94
499,00	1341,24
500,00	1354,59
501,00	1362,89
502,00	1425,74
503,00	1412,63
504,00	1402,57
505,00	1433,23
506,00	1464,94
507,00	1487,18
508,00	1460,85
509,00	1364,06
510,00	1371,44
511,00	1443,64
512,00	1405,84
513,00	1477,00
514,00	1612,16
515,00	1373,66
516,00	1412,05
517,00	1374,48
518,00	1390,04
519,00	1485,54
520,00	1472,08
521,00	1368,04
522,00	1428,55
523,00	1545,10
524,00	1441,07
525,00	1367,69
526,00	1377,52
527,00	1397,07
528,00	1432,99
529,00	1431,47
530,00	1392,74
531,00	1390,98
532,00	1352,60
533,00	1430,07
534,00	1390,40
535,00	1416,73
536,00	1440,83
537,00	1436,04
538,00	1472,90
539,00	1414,85
540,00	1371,09
541,00	1462,02
542,00	1377,17
543,00	1431,94
544,00	1431,94
545,00	1392,38
546,00	1362,66
547,00	1461,08
548,00	1388,87
549,00	1366,99
550,00	1396,71
551,00	1400,23
552,00	1583,26
553,00	1449,73
554,00	1436,15
555,00	1453,82
556,00	1383,84
557,00	1424,10
558,00	1362,66
559,00	1376,12
560,00	1470,32
561,00	1484,25
562,00	1452,77
563,00	1394,49
564,00	1415,44
565,00	1441,54
566,00	1400,11
567,00	1438,03
568,00	1423,98
569,00	1394,61
570,00	1423,40
571,00	1432,41
572,00	1366,17
573,00	1412,86
574,00	1389,69
575,00	1420,35
576,00	1477,93
577,00	1439,31
578,00	1367,93
579,00	1379,86
580,00	1413,57
581,00	1431,12
582,00	1383,96
583,00	1380,80
584,00	1382,44
585,00	1465,29
586,00	1377,05
587,00	1418,25
588,00	1372,72
589,00	1378,81
590,00	1441,18
591,00	1378,22
592,00	1433,11
593,00	1412,75
594,00	1387,59
595,00	1413,10
596,00	1438,03
597,00	1418,25
598,00	1353,65
599,00	1413,33
600,00	1395,54
601,00	4069,61
602,00	1592,27
603,00	1418,36
604,00	1403,97
605,00	1418,72
606,00	1399,06
607,00	1395,66
608,00	1409,00
609,00	1432,76
610,00	1407,72
611,00	1374,13
612,00	1430,30
613,00	1376,70
614,00	1448,32
615,00	1406,08
616,00	1432,06
617,00	1483,08
618,00	1405,02
619,00	1379,86
620,00	1385,36
621,00	1419,42
622,00	1374,83
623,00	1422,11
624,00	1366,05
625,00	1553,88
626,00	1373,08
627,00	1454,88
628,00	1397,30
629,00	1430,18
630,00	1399,52
631,00	1369,56
632,00	1435,80
633,00	1360,79
634,00	1413,33
635,00	1477,81
636,00	1432,99
637,00	1396,95
638,00	1369,33
639,00	1390,98
640,00	1417,31
641,00	1404,79
642,00	1425,62
643,00	1418,60
644,00	1374,01
645,00	1417,08
646,00	1357,74
647,00	1373,08
648,00	1375,65
649,00	1397,77
650,00	1386,42
651,00	1395,19
652,00	1425,27
653,00	1398,24
654,00	1397,77
655,00	1374,01
656,00	1438,26
657,00	1400,23
658,00	1457,57
659,00	1446,57
660,00	1711,63
661,00	1457,10
662,00	1413,80
663,00	1425,50
664,00	1436,50
665,00	1386,18
666,00	1471,85
667,00	1371,44
668,00	1363,48
669,00	1448,32
670,00	1431,24
671,00	1409,12
672,00	1394,14
673,00	1447,97
674,00	1423,40
675,00	1378,46
676,00	1483,31
677,00	1414,50
678,00	1371,79
679,00	1418,83
680,00	1382,91
681,00	1389,81
682,00	1431,35
683,00	1390,75
684,00	1390,28
685,00	1429,25
686,00	1409,70
687,00	1492,09
688,00	1424,68
689,00	1576,35
690,00	1695,13
691,00	1621,87
692,00	1570,38
693,00	1489,28
694,00	1403,85
695,00	1518,89
696,00	1459,21
697,00	1402,33
698,00	1438,49
699,00	1668,80
700,00	1416,38
701,00	1478,75
702,00	1470,68
703,00	1417,55
704,00	1480,51
705,00	1433,58
706,00	1454,29
707,00	1414,27
708,00	1466,35
709,00	1406,66
710,00	1388,64
711,00	1454,99
712,00	1405,26
713,00	1405,61
714,00	1396,48
715,00	1410,06
716,00	1446,69
717,00	1442,71
718,00	1405,14
719,00	1385,71
720,00	1489,17
721,00	1444,46
722,00	1423,98
723,00	1589,93
724,00	1496,30
725,00	1460,38
726,00	1434,87
727,00	1414,85
728,00	1431,35
729,00	1562,07
730,00	1404,67
731,00	1453,82
732,00	1434,28
733,00	1392,27
734,00	1505,32
735,00	1429,13
736,00	1436,62
737,00	1388,29
738,00	1440,37
739,00	1451,37
740,00	1469,27
741,00	1525,33
742,00	1647,97
743,00	1498,65
744,00	1487,06
745,00	1449,73
746,00	1495,72
747,00	1510,58
748,00	1580,91
749,00	1613,45
750,00	1550,02
751,00	1636,62
752,00	1820,23
753,00	2155,75
754,00	2465,17
755,00	3218,59
756,00	4023,97
757,00	5680,36
758,00	8708,20
759,00	9692,39
760,00	6817,16
761,00	6353,97
762,00	4397,28
763,00	3139,24
764,00	2365,11
765,00	2010,87
766,00	1694,55
767,00	1626,79
768,00	1527,32
769,00	1472,55
770,00	1494,78
771,00	1466,23
772,00	1479,80
773,00	1491,62
774,00	1475,24
775,00	1512,10
776,00	1444,58
777,00	1449,96
778,00	1443,29
779,00	1428,08
780,00	1453,47
781,00	1422,69
782,00	1493,38
783,00	1455,93
784,00	1498,06
785,00	1559,26
786,00	1445,63
787,00	1445,05
788,00	1459,68
789,00	1453,94
790,00	1427,49
791,00	1433,70
792,00	1479,69
793,00	1470,44
794,00	1523,10
795,00	1580,80
796,00	1572,14
797,00	1600,34
798,00	1547,68
799,00	1482,03
800,00	1500,75
801,00	1522,75
802,00	1587,47
803,00	1500,75
804,00	1468,34
805,00	1423,98
806,00	1437,91
807,00	1413,10
808,00	1395,78
809,00	1399,17
810,00	1433,23
811,00	1397,18
812,00	1480,15
813,00	1439,20
814,00	1474,89
815,00	1442,47
816,00	1496,30
817,00	1447,86
818,00	1422,46
819,00	1480,27
820,00	1414,39
821,00	1509,41
822,00	1433,70
823,00	1436,97
824,00	1452,19
825,00	1452,77
826,00	1443,06
827,00	1540,89
828,00	1521,47
829,00	1685,65
830,00	1809,70
831,00	2445,86
832,00	2354,23
833,00	2481,20
834,00	2522,63
835,00	2022,46
836,00	1841,88
837,00	1686,71
838,00	1543,35
839,00	1488,11
840,00	1447,50
841,00	3593,19
842,00	1559,73
843,00	1524,74
844,00	1452,65
845,00	1521,23
846,00	1466,70
847,00	1414,27
848,00	1423,16
849,00	1401,75
850,00	1436,74
851,00	1396,25
852,00	1366,87
853,00	1452,77
854,00	1384,43
855,00	1394,26
856,00	1404,67
857,00	1475,47
858,00	1418,60
859,00	1486,24
860,00	1484,95
861,00	1421,99
862,00	1424,45
863,00	1413,92
864,00	1454,76
865,00	1419,89
866,00	1529,42
867,00	1507,19
868,00	1538,20
869,00	1758,68
870,00	1611,81
871,00	1741,01
872,00	1644,23
873,00	1529,89
874,00	1481,56
875,00	1493,73
876,00	1471,49
877,00	1393,55
878,00	1408,30
879,00	1465,18
880,00	1444,58
881,00	1372,61
882,00	1475,59
883,00	1412,05
884,00	1385,25
885,00	1435,45
886,00	1437,91
887,00	1451,95
888,00	1410,64
889,00	1400,11
890,00	1474,65
891,00	1515,38
892,00	1437,56
893,00	1404,09
894,00	1381,74
895,00	1394,02
896,00	1398,94
897,00	1377,76
898,00	1449,84
899,00	1409,94
900,00	1462,60
901,00	1417,43
902,00	1398,70
903,00	1474,77
904,00	1463,65
905,00	1524,86
906,00	1667,16
907,00	1955,05
908,00	1929,54
909,00	1913,62
910,00	2032,64
911,00	1816,26
912,00	1683,43
913,00	1589,57
914,00	1508,71
915,00	1470,79
916,00	1497,83
917,00	1415,91
918,00	1383,14
919,00	1396,71
920,00	1399,06
921,00	1413,92
922,00	1443,06
923,00	1452,07
924,00	1426,21
925,00	1418,48
926,00	1435,57
927,00	1436,97
928,00	1413,57
929,00	1426,09
930,00	1406,19
931,00	1468,80
932,00	1390,04
933,00	1495,49
934,00	1399,41
935,00	1485,54
936,00	1423,40
937,00	1395,43
938,00	1394,02
939,00	1498,18
940,00	1389,34
941,00	1392,27
942,00	1439,20
943,00	1434,75
944,00	1612,75
945,00	1500,63
946,00	1601,51
947,00	1770,85
948,00	1730,71
949,00	1812,39
950,00	1763,13
951,00	1624,33
952,00	1502,39
953,00	1472,67
954,00	1456,05
955,00	1475,71
956,00	1418,48
957,00	1396,13
958,00	1411,93
959,00	1434,87
960,00	1371,09
961,00	1451,83
962,00	1413,10
963,00	1427,38
964,00	1632,99
965,00	1420,12
966,00	1434,05
967,00	1463,65
968,00	1392,85
969,00	1554,58
970,00	1430,77
971,00	1462,02
972,00	1423,16
973,00	1456,05
974,00	1387,70
975,00	1417,78
976,00	1383,96
977,00	1454,17
978,00	1428,43
979,00	1400,11
980,00	1409,59
981,00	1447,74
982,00	1419,07
983,00	1404,09
984,00	1438,84
985,00	1491,74
986,00	1571,55
987,00	1741,36
988,00	1796,71
989,00	1661,20
990,00	1724,97
991,00	1614,27
992,00	1555,05
993,00	1467,05
994,00	1446,22
995,00	1450,66
996,00	1401,75
997,00	1465,88
998,00	1429,01
999,00	1520,29
1000,00	1378,11
1001,00	1436,50
1002,00	1408,18
1003,00	1372,96
1004,00	1485,54
1005,00	1381,03
1006,00	1382,55
1007,00	1429,83
1008,00	1385,36
1009,00	1393,44
1010,00	1403,39
1011,00	1391,92
1012,00	1455,58
1013,00	1380,10
1014,00	1398,24
1015,00	1420,82
1016,00	1419,65
1017,00	1394,37
1018,00	1443,06
1019,00	1451,25
1020,00	1411,11
1021,00	1404,32
1022,00	1430,30
1023,00	1401,40
1024,00	1465,99
1025,00	1422,58
1026,00	1456,40
1027,00	1521,70
1028,00	1763,71
1029,00	1749,08
1030,00	1693,73
1031,00	1796,36
1032,00	1706,37
1033,00	1644,93
1034,00	1518,31
1035,00	1552,71
1036,00	1479,45
1037,00	1473,13
1038,00	1415,67
1039,00	1398,82
1040,00	1406,43
1041,00	1417,08
1042,00	1479,22
1043,00	1441,77
1044,00	1724,86
1045,00	1465,18
1046,00	1395,19
1047,00	1391,10
1048,00	1440,83
1049,00	1416,61
1050,00	1421,17
1051,00	1402,80
1052,00	1434,87
1053,00	1447,97
1054,00	1374,01
1055,00	1444,93
1056,00	1466,93
1057,00	1413,92
1058,00	1404,91
1059,00	1434,63
1060,00	1408,53
1061,00	1423,28
1062,00	1370,27
1063,00	1370,03
1064,00	1477,35
1065,00	1421,29
1066,00	1376,82
1067,00	1460,49
1068,00	1460,26
1069,00	1475,36
1070,00	1534,69
1071,00	1593,09
1072,00	1513,62
1073,00	1527,32
1074,00	1531,65
1075,00	1596,48
1076,00	1428,31
1077,00	1437,21
1078,00	1440,48
1079,00	1396,36
1080,00	1525,33
1081,00	1469,97
1082,00	1396,01
1083,00	1437,44
1084,00	1414,62
1085,00	1451,83
1086,00	1381,97
1087,00	1458,15
1088,00	1436,39
1089,00	1409,00
1090,00	1396,13
1091,00	1455,93
1092,00	1483,78
1093,00	1559,50
1094,00	1431,12
1095,00	1419,89
1096,00	1404,91
1097,00	1440,13
1098,00	1376,70
1099,00	1468,34
1100,00	1391,80
1101,00	1426,21
1102,00	1399,87
1103,00	1478,40
1104,00	1461,08
1105,00	1528,72
1106,00	1411,93
1107,00	1443,06
1108,00	1441,42
1109,00	1397,42
1110,00	1419,77
1111,00	1561,14
1112,00	1527,32
1113,00	1539,72
1114,00	1694,66
1115,00	1707,19
1116,00	1740,42
1117,00	1804,55
1118,00	1745,57
1119,00	1621,52
1120,00	1600,11
1121,00	1754,70
1122,00	1477,70
1123,00	1440,37
1124,00	1479,34
1125,00	1389,22
1126,00	1418,83
1127,00	1423,40
1128,00	1569,68
1129,00	1380,21
1130,00	1373,66
1131,00	1452,07
1132,00	1418,60
1133,00	1438,96
1134,00	1525,21
1135,00	1449,49
1136,00	1482,73
1137,00	1438,14
1138,00	1409,94
1139,00	1421,76
1140,00	1408,65
1141,00	1399,76
1142,00	1385,95
1143,00	1428,08
1144,00	1487,41
1145,00	1525,91
1146,00	1436,50
1147,00	1454,99
1148,00	1389,34
1149,00	1392,15
1150,00	1405,84
1151,00	1471,73
1152,00	1446,80
1153,00	1414,62
1154,00	1466,23
1155,00	1407,01
1156,00	1475,47
1157,00	1449,38
1158,00	1487,88
1159,00	1432,17
1160,00	1438,96
1161,00	1479,22
1162,00	1482,73
1163,00	1430,54
1164,00	1392,62
1165,00	1495,72
1166,00	1502,74
1167,00	1420,24
1168,00	1435,22
1169,00	1402,80
1170,00	1422,58
1171,00	1496,42
1172,00	1411,81
1173,00	1420,24
1174,00	1409,24
1175,00	1374,95
1176,00	1400,93
1177,00	1451,25
1178,00	1520,76
1179,00	1468,10
1180,00	1407,60
1181,00	1432,41
1182,00	1419,65
1183,00	1431,47
1184,00	1380,21
1185,00	1422,46
1186,00	1439,90
1187,00	1435,10
1188,00	1463,65
1189,00	1376,12
1190,00	1392,50
1191,00	1450,66
1192,00	1507,66
1193,00	1413,45
1194,00	1411,58
1195,00	1445,40
1196,00	1478,98
1197,00	1403,15
1198,00	1499,70
1199,00	1462,95
1200,00	1438,14
1201,00	1403,39
1202,00	1456,87
1203,00	1517,72
1204,00	1595,54
1205,00	1777,40
1206,00	1653,47
1207,00	1746,16
1208,00	1803,73
1209,00	1627,37
1210,00	1549,32
1211,00	1537,97
1212,00	1469,86
1213,00	1431,24
1214,00	1392,38
1215,00	1435,92
1216,00	1384,54
1217,00	1445,87
1218,00	1397,88
1219,00	1396,48
1220,00	1405,14
1221,00	1497,94
1222,00	1467,16
1223,00	1401,04
1224,00	1406,08
1225,00	1398,59
1226,00	1395,19
1227,00	1427,61
1228,00	1390,40
1229,00	1431,59
1230,00	1396,36
1231,00	1417,43
1232,00	1385,13
1233,00	1389,46
1234,00	1423,86
1235,00	1386,42
1236,00	1439,55
1237,00	1437,09
1238,00	1422,46
1239,00	1418,72
1240,00	1366,99
1241,00	1446,33
1242,00	1412,75
1243,00	1448,32
1244,00	1367,81
1245,00	1399,76
1246,00	1432,99
1247,00	1492,44
1248,00	1472,55
1249,00	1458,62
1250,00	1407,25
1251,00	1441,07
1252,00	1419,65
1253,00	1473,37
1254,00	1403,97
1255,00	1442,00
1256,00	1418,72
1257,00	1430,89
1258,00	1392,85
1259,00	1363,95
1260,00	1449,03
1261,00	1416,84
1262,00	1400,11
1263,00	1404,20
1264,00	1437,79
1265,00	1398,94
1266,00	1542,06
1267,00	1411,46
1268,00	1376,94
1269,00	1397,07
1270,00	1470,32
1271,00	1388,52
1272,00	1415,91
1273,00	1440,83
1274,00	1407,60
1275,00	1391,68
1276,00	1536,56
1277,00	1904,38
1278,00	1501,92
1279,00	1425,62
1280,00	1423,28
1281,00	1399,87
1282,00	1395,78
1283,00	1387,70
1284,00	1399,06
1285,00	1564,41
1286,00	1384,08
1287,00	1429,95
1288,00	1431,35
1289,00	1556,92
1290,00	1411,46
1291,00	1394,61
1292,00	1431,71
1293,00	1404,79
1294,00	1377,76
1295,00	1426,44
1296,00	1505,08
1297,00	1437,56
1298,00	1494,32
1299,00	1530,13
1300,00	1669,39
1301,00	1675,24
1302,00	1729,54
1303,00	1684,25
1304,00	1744,99
1305,00	1592,73
1306,00	1531,41
1307,00	1499,46
1308,00	1498,06
1309,00	1411,58
1310,00	1411,58
1311,00	1413,57
1312,00	1398,47
1313,00	1409,24
1314,00	1425,27
1315,00	1503,21
1316,00	1377,05
1317,00	1387,70
1318,00	1421,76
1319,00	1432,41
1320,00	1420,24
1321,00	1441,07
1322,00	1825,73
1323,00	1402,92
1324,00	1387,94
1325,00	1396,48
1326,00	1381,15
1327,00	1355,05
1328,00	1434,98
1329,00	1382,44
1330,00	1408,65
1331,00	1431,35
1332,00	1382,67
1333,00	1402,10
1334,00	1381,97
1335,00	1442,24
1336,00	1435,45
1337,00	1463,30
1338,00	1415,67
1339,00	1381,62
1340,00	1406,66
1341,00	1448,56
1342,00	1428,66
1343,00	1499,46
1344,00	1440,95
1345,00	1378,81
1346,00	1391,80
1347,00	1425,97
1348,00	1420,00
1349,00	1365,94
1350,00	1530,48
1351,00	1506,49
1352,00	1443,17
1353,00	1431,82
1354,00	1643,17
1355,00	1394,26
1356,00	1367,93
1357,00	1380,68
1358,00	1442,82
1359,00	1456,98
1360,00	1405,02
1361,00	1378,81
1362,00	1398,12
1363,00	1401,16
1364,00	1439,90
1365,00	1473,13
1366,00	1380,21
1367,00	1361,72
1368,00	1398,47
1369,00	1394,73
1370,00	1441,77
1371,00	1399,76
1372,00	1367,46
1373,00	1507,42
1374,00	1416,49
1375,00	1412,51
1376,00	1448,56
1377,00	1449,73
1378,00	1482,14
1379,00	1440,83
1380,00	1613,33
1381,00	1391,21
1382,00	1390,04
1383,00	1519,24
1384,00	1398,94
1385,00	1444,23
1386,00	1475,71
1387,00	1490,45
1388,00	1412,40
1389,00	1459,91
1390,00	1381,03
1391,00	1392,62
1392,00	1497,59
1393,00	1439,08
1394,00	1428,31
1395,00	1399,76
1396,00	1481,79
1397,00	1395,54
1398,00	1628,31
1399,00	1813,45
1400,00	1599,52
1401,00	1610,05
1402,00	1886,71
1403,00	1605,84
1404,00	1583,49
1405,00	1547,56
1406,00	1506,60
1407,00	1467,40
1408,00	1457,45
1409,00	1425,04
1410,00	1397,65
1411,00	2845,27
1412,00	1515,61
1413,00	1381,38
1414,00	1367,46
1415,00	1385,36
1416,00	1355,17
1417,00	1368,28
1418,00	1430,89
1419,00	1443,41
1420,00	1382,79
1421,00	1380,56
1422,00	1356,11
1423,00	1349,79
1424,00	1412,16
1425,00	1359,62
1426,00	1414,03
1427,00	1413,45
1428,00	1362,54
1429,00	1402,45
1430,00	1356,46
1431,00	1368,98
1432,00	1428,31
1433,00	1398,59
1434,00	1441,07
1435,00	1409,12
1436,00	1402,57
1437,00	1457,57
1438,00	1401,04
1439,00	1393,32
1440,00	1391,92
1441,00	1389,46
1442,00	1366,05
1443,00	1364,06
1444,00	1369,10
1445,00	1386,30
1446,00	1439,43
1447,00	1405,49
1448,00	1445,51
1449,00	1410,06
1450,00	1421,17
1451,00	1407,95
1452,00	1507,30
1453,00	1434,51
1454,00	1496,42
1455,00	1494,43
1456,00	1422,69
1457,00	1521,93
1458,00	1470,68
1459,00	1415,56
1460,00	1388,87
1461,00	1425,85
1462,00	1412,63
1463,00	1438,73
1464,00	1392,03
1465,00	1403,15
1466,00	1373,66
1467,00	1439,78
1468,00	1391,57
1469,00	1372,37
1470,00	1397,07
1471,00	1439,08
1472,00	1402,92
1473,00	1371,09
1474,00	1404,32
1475,00	1378,34
1476,00	1542,41
1477,00	1458,04
1478,00	1726,50
1479,00	1527,67
1480,00	1418,25
1481,00	1388,64
1482,00	1393,32
1483,00	1400,11
1484,00	1462,37
1485,00	1460,73
1486,00	1375,88
1487,00	1449,03
1488,00	1447,86
1489,00	1420,00
1490,00	1441,18
1491,00	1424,45
1492,00	1399,99
1493,00	1384,78
1494,00	1375,77
1495,00	1443,06
1496,00	1388,99
1497,00	1484,25
1498,00	1472,90
1499,00	1445,63
1500,00	1420,94
1501,00	1418,36
1502,00	1368,75
1503,00	1516,43
1504,00	1416,14
1505,00	1514,09
1506,00	1430,77
1507,00	1432,29
1508,00	1490,10
1509,00	1468,22
1510,00	1444,46
1511,00	1535,39
1512,00	1476,18
1513,00	1462,02
1514,00	1432,52
1515,00	1437,79
1516,00	1812,63
1517,00	1497,94
1518,00	1400,69
1519,00	1424,33
1520,00	1442,12
1521,00	1375,77
1522,00	1433,11
1523,00	1393,32
1524,00	1393,20
1525,00	1378,11
1526,00	1371,09
1527,00	1371,09
1528,00	1414,97
1529,00	1359,03
1530,00	1376,47
1531,00	1387,12
1532,00	1387,12
1533,00	1363,60
1534,00	1400,69
1535,00	1372,96
1536,00	1409,35
1537,00	1441,65
1538,00	1448,56
1539,00	1442,82
1540,00	1411,81
1541,00	1423,28
1542,00	1395,19
1543,00	1387,47
1544,00	1421,52
1545,00	1416,49
1546,00	1388,41
1547,00	1403,62
1548,00	1380,92
1549,00	1385,60
1550,00	1384,08
1551,00	1406,54
1552,00	1379,75
1553,00	1365,70
1554,00	1370,38
1555,00	1373,89
1556,00	1382,79
1557,00	1447,97
1558,00	1411,23
1559,00	1390,28
1560,00	1403,97
1561,00	1406,31
1562,00	1509,65
1563,00	1466,93
1564,00	1421,88
1565,00	1469,62
1566,00	1472,08
1567,00	1498,06
1568,00	1466,23
1569,00	1432,76
1570,00	1422,11
1571,00	1431,00
1572,00	1453,82
1573,00	1416,49
1574,00	1482,85
1575,00	1389,22
1576,00	1366,99
1577,00	1377,29
1578,00	1434,28
1579,00	1390,40
1580,00	1387,35
1581,00	1394,61
1582,00	1377,05
1583,00	1490,80
1584,00	1415,91
1585,00	1368,98
1586,00	1411,69
1587,00	1425,85
1588,00	1453,24
1589,00	1383,14
1590,00	1417,19
1591,00	1395,54
1592,00	1504,73
1593,00	1375,88
1594,00	1405,26
1595,00	1371,09
1596,00	1388,52
1597,00	1381,38
1598,00	1378,11
1599,00	1390,40
1600,00	1348,27
1601,00	1425,50
1602,00	1454,53
1603,00	1428,43
1604,00	1384,43
1605,00	1492,91
1606,00	1375,30
1607,00	1392,97
1608,00	1372,61
1609,00	1384,19
1610,00	1361,61
1611,00	1454,06
1612,00	1394,61
1613,00	1416,61
1614,00	1362,07
1615,00	1386,77
1616,00	1444,70
1617,00	1398,00
1618,00	1449,26
1619,00	1405,73
1620,00	1493,14
1621,00	1459,56
1622,00	1438,73
1623,00	1516,43
1624,00	1479,10
1625,00	1442,47
1626,00	1540,31
1627,00	1412,16
1628,00	1414,15
1629,00	1821,76
1630,00	1438,84
1631,00	1398,70
1632,00	1431,47
1633,00	1391,80
1634,00	1397,07
1635,00	1378,58
1636,00	1396,83
1637,00	1387,24
1638,00	1363,60
1639,00	1357,28
1640,00	1413,10
1641,00	1457,22
1642,00	1470,32
1643,00	1388,76
1644,00	1505,90
1645,00	1433,23
1646,00	1404,67
1647,00	1452,89
1648,00	1409,59
1649,00	1387,47
1650,00	1529,77
1651,00	1458,04
1652,00	1372,02
1653,00	1381,74
1654,00	1407,60
1655,00	1406,08
1656,00	1390,28
1657,00	1478,17
1658,00	1396,83
1659,00	1438,73
1660,00	1437,44
1661,00	1451,60
1662,00	1407,36
1663,00	1445,16
1664,00	1428,08
1665,00	1379,63
1666,00	1417,31
1667,00	1510,70
1668,00	1366,29
1669,00	1381,15
1670,00	1443,64
1671,00	1386,77
1672,00	1366,64
1673,00	1442,36
1674,00	1428,19
1675,00	1430,77
1676,00	1424,80
1677,00	1429,72
1678,00	1463,89
1679,00	1463,77
1680,00	1468,69
1681,00	1492,44
1682,00	1623,40
1683,00	1502,62
1684,00	1530,59
1685,00	1477,35
1686,00	1389,46
1687,00	1384,08
1688,00	1448,32
1689,00	1382,79
1690,00	1383,37
1691,00	1369,56
1692,00	1390,86
1693,00	1494,90
1694,00	1379,04
1695,00	1411,11
1696,00	1398,94
1697,00	1406,66
1698,00	1406,31
1699,00	1405,49
1700,00	1402,92
1701,00	1463,42
1702,00	1371,20
1703,00	1379,39
1704,00	1374,95
1705,00	1421,41
1706,00	1388,41
1707,00	1373,43
1708,00	1390,98
1709,00	1443,29
1710,00	1406,78
1711,00	1374,01
1712,00	1408,42
1713,00	1496,42
1714,00	1428,43
1715,00	1407,48
1716,00	1492,91
1717,00	1395,90
1718,00	1504,96
1719,00	1452,42
1720,00	1389,93
1721,00	1426,09
1722,00	1394,02
1723,00	1455,70
1724,00	1387,82
1725,00	1403,85
1726,00	1416,14
1727,00	1364,18
1728,00	1476,06
1729,00	1354,82
1730,00	1515,85
1731,00	1430,89
1732,00	1528,95
1733,00	1427,61
1734,00	1377,76
1735,00	1408,53
1736,00	1385,60
1737,00	1347,56
1738,00	1406,78
1739,00	1450,55
1740,00	1452,89
1741,00	1545,92
1742,00	1449,26
1743,00	1407,83
1744,00	1383,61
1745,00	1380,68
1746,00	1405,73
1747,00	1423,28
1748,00	1438,38
1749,00	1506,60
1750,00	1450,31
1751,00	1551,89
1752,00	1398,94
1753,00	1376,47
1754,00	1394,96
1755,00	1418,01
1756,00	1398,59
1757,00	1472,90
1758,00	1379,51
1759,00	1368,04
1760,00	1380,68
1761,00	1432,99
1762,00	1421,99
1763,00	1366,17
1764,00	1440,13
1765,00	1395,19
1766,00	1372,84
1767,00	1383,61
1768,00	1386,18
1769,00	1427,38
1770,00	1368,75
1771,00	1396,36
1772,00	1514,68
1773,00	1398,94
1774,00	1355,76
1775,00	1390,63
1776,00	1401,98
1777,00	1355,05
1778,00	1384,89
1779,00	1371,91
1780,00	1376,59
1781,00	1370,38
1782,00	1355,29
1783,00	1406,66
1784,00	1411,11
1785,00	1401,40
1786,00	1422,93
1787,00	1377,76
1788,00	1419,30
1789,00	1418,48
1790,00	1472,55
1791,00	1387,12
1792,00	1414,97
1793,00	1398,70
1794,00	1373,78
1795,00	1385,13
1796,00	1364,88
1797,00	1359,15
1798,00	1375,88
1799,00	1371,55
1800,00	1441,54
1801,00	1435,68
1802,00	1501,57
1803,00	1430,30
1804,00	1479,34
1805,00	1445,16
1806,00	1484,95
1807,00	1461,66
1808,00	1414,39
1809,00	1441,18
1810,00	1478,17
1811,00	1421,06
1812,00	1389,81
1813,00	1391,57
1814,00	1405,14
1815,00	1432,29
1816,00	1546,86
1817,00	1400,81
1818,00	1698,41
1819,00	1468,92
1820,00	1441,77
1821,00	1366,52
1822,00	1365,35
1823,00	1377,52
1824,00	1399,87
1825,00	1493,14
1826,00	1387,00
1827,00	1491,74
1828,00	1519,59
1829,00	1410,29
1830,00	1440,37
1831,00	1370,03
1832,00	1344,05
1833,00	1354,94
1834,00	1386,18
1835,00	1405,02
1836,00	1363,83
1837,00	1357,51
1838,00	1416,84
1839,00	1476,64
1840,00	1543,82
1841,00	1429,83
1842,00	1425,04
1843,00	1434,63
1844,00	1503,79
1845,00	1428,31
1846,00	1379,63
1847,00	1377,05
1848,00	1412,28
1849,00	1392,74
1850,00	1417,90
1851,00	1441,07
1852,00	1372,14
1853,00	1380,92
1854,00	1378,11
1855,00	1366,76
1856,00	1378,11
1857,00	1397,65
1858,00	1493,96
1859,00	1355,29
1860,00	1403,50
1861,00	1646,33
1862,00	1382,44
1863,00	1406,08
1864,00	1372,14
1865,00	1405,37
1866,00	1435,10
1867,00	1379,39
1868,00	1413,33
1869,00	1351,19
1870,00	1388,64
1871,00	1364,42
1872,00	1408,65
1873,00	1407,25
1874,00	1429,13
1875,00	1392,27
1876,00	1375,30
1877,00	1401,86
1878,00	1467,16
1879,00	1432,29
1880,00	1354,59
1881,00	1409,70
1882,00	1374,83
1883,00	1374,13
1884,00	1379,86
1885,00	1411,11
1886,00	1422,58
1887,00	1363,48
1888,00	1370,62
1889,00	1417,08
1890,00	1354,94
1891,00	1437,79
1892,00	1463,65
1893,00	1381,38
1894,00	1447,86
1895,00	1416,61
1896,00	1450,20
1897,00	1549,55
1898,00	1379,63
1899,00	1416,38
1900,00	1389,34
1901,00	1408,77
1902,00	1388,87
1903,00	1481,91
1904,00	1425,50
1905,00	1658,27
1906,00	1380,80
1907,00	1377,41
1908,00	1648,91
1909,00	1389,34
1910,00	1377,05
1911,00	1410,76
1912,00	1432,52
1913,00	1487,29
1914,00	1383,96
1915,00	1378,81
1916,00	1420,94
1917,00	1419,77
1918,00	1399,41
1919,00	1398,00
1920,00	1372,84
1921,00	1460,03
1922,00	1400,81
1923,00	1404,20
1924,00	1420,71
1925,00	1377,87
1926,00	1399,64
1927,00	1433,34
1928,00	1482,26
1929,00	1436,27
1930,00	1364,77
1931,00	1431,71
1932,00	1559,03
1933,00	1431,47
1934,00	1396,95
1935,00	1411,23
1936,00	1421,99
1937,00	1384,78
1938,00	1430,18
1939,00	1414,97
1940,00	1545,69
1941,00	1392,62
1942,00	1405,26
1943,00	1388,29
1944,00	1432,06
1945,00	1383,26
1946,00	1350,14
1947,00	1359,62
1948,00	1529,77
1949,00	1388,17
1950,00	1425,15
1951,00	1370,38
1952,00	1373,19
1953,00	1356,57
1954,00	1420,59
1955,00	1377,52
1956,00	1395,08
1957,00	1424,68
1958,00	1353,30
1959,00	1381,62
1960,00	1362,89
1961,00	1436,50
1962,00	1346,39
1963,00	1431,47
1964,00	1370,15
1965,00	1427,02
1966,00	1367,34
1967,00	1451,83
1968,00	1381,38
1969,00	1353,53
1970,00	1404,20
1971,00	1443,29
1972,00	1398,35
1973,00	1413,10
1974,00	1421,76
1975,00	1427,49
1976,00	1432,99
1977,00	1415,79
1978,00	1404,56
1979,00	1395,66
1980,00	1680,04
1981,00	1406,54
1982,00	1365,23
1983,00	1389,11
1984,00	1399,64
1985,00	1485,54
1986,00	1373,78
1987,00	1369,33
1988,00	1386,30
1989,00	1389,81
1990,00	1491,39
1991,00	1427,49
1992,00	1442,71
1993,00	1589,57
1994,00	1431,47
1995,00	1371,55
1996,00	1422,11
1997,00	1418,83
1998,00	1415,20
1999,00	1357,28
2000,00	1351,66
2001,00	1395,78
2002,00	1470,91
2003,00	1355,29
2004,00	1406,78
2005,00	1367,93
2006,00	1508,01
2007,00	1381,38
2008,00	1355,40
2009,00	1485,07
2010,00	1365,12
2011,00	1353,18
2012,00	1385,60
2013,00	1380,45
2014,00	1397,77
2015,00	1359,62
2016,00	1360,55
2017,00	1376,35
2018,00	1401,16
2019,00	1373,08
2020,00	1375,06
2021,00	1417,08
2022,00	1415,09
2023,00	1385,71
2024,00	1367,34
2025,00	1465,64
2026,00	1374,36
2027,00	1374,36
2028,00	1442,47
2029,00	1367,93
2030,00	1366,17
2031,00	1372,49
2032,00	1371,55
2033,00	1393,55
2034,00	1481,21
2035,00	1402,45
2036,00	1387,59
2037,00	1378,34
2038,00	1398,00
2039,00	1392,27
2040,00	1414,62
2041,00	1408,89
2042,00	1376,47
2043,00	1389,58
2044,00	1413,33
2045,00	1376,12
2046,00	1376,12
2047,00	1376,12
>>>>>End Processed Spectral Data<<<<<
