SpectraSuite Datei
++++++++++++++++++++++++++++++++++++
Datum: Thu Sep 19 12:41:37 CEST 2024
Benutzer: Student
Dark-Spektrum vorhanden: Nein
Referenz-Spektrum vorhanden: Nein
Zahl der probierten Teilspektren: 1
Spektrometer: USB2+H15728
Integrationszeit (usec): 100000 (USB2+H15728)
Spektren Durchschnitt berechnet: 500 (USB2+H15728)
Boxcar Glättung: 0 (USB2+H15728)
Dunkelstromkorrektur: Nein (USB2+H15728)
Puls/Lampe aktiviert: Nein (USB2+H15728)
Correct for Detector Non-linearity: Nein (USB2+H15728)
Streulichtkorrektur: Nein (USB2+H15728)
Anzahl Pixel in verarbeitetem Spektrum: 2048
>>>>>Begin Processed Spectral Data<<<<<
0,00	982,60
1,00	982,60
2,00	982,60
3,00	952,19
4,00	961,51
5,00	961,43
6,00	966,02
7,00	971,55
8,00	992,87
9,00	995,50
10,00	1005,17
11,00	1027,18
12,00	1031,94
13,00	1076,38
14,00	1065,06
15,00	1085,09
16,00	1099,27
17,00	1124,60
18,00	1132,78
19,00	1162,26
20,00	1160,51
21,00	1176,17
22,00	1192,48
23,00	1217,30
24,00	1220,21
25,00	1234,29
26,00	1247,88
27,00	1262,09
28,00	1268,50
29,00	1275,26
30,00	1285,41
31,00	1291,97
32,00	1314,15
33,00	1298,29
34,00	1310,10
35,00	1314,10
36,00	1314,60
37,00	1310,29
38,00	1317,44
39,00	1336,39
40,00	1316,99
41,00	1332,82
42,00	1321,22
43,00	1322,21
44,00	1315,57
45,00	1317,45
46,00	1311,53
47,00	1321,66
48,00	1311,76
49,00	1325,85
50,00	1309,67
51,00	1312,46
52,00	1307,95
53,00	1319,41
54,00	1302,77
55,00	1301,65
56,00	1309,71
57,00	1302,39
58,00	1298,30
59,00	1301,05
60,00	1286,48
61,00	1293,19
62,00	1288,74
63,00	1285,57
64,00	1286,84
65,00	1284,83
66,00	1288,37
67,00	1285,01
68,00	1286,06
69,00	1286,41
70,00	1337,96
71,00	1292,19
72,00	1283,63
73,00	1284,95
74,00	1283,10
75,00	1282,55
76,00	1281,31
77,00	1288,60
78,00	1284,72
79,00	1284,60
80,00	1288,51
81,00	1280,28
82,00	1290,52
83,00	1280,60
84,00	1305,96
85,00	1292,41
86,00	1312,05
87,00	1305,63
88,00	1284,71
89,00	1283,52
90,00	1289,12
91,00	1302,94
92,00	1292,53
93,00	1296,63
94,00	1290,55
95,00	1283,11
96,00	1287,79
97,00	1335,86
98,00	1293,95
99,00	1291,90
100,00	1295,08
101,00	1298,12
102,00	1293,25
103,00	1290,40
104,00	1291,52
105,00	1298,28
106,00	1295,90
107,00	1297,44
108,00	1300,49
109,00	1296,23
110,00	1315,62
111,00	1302,47
112,00	1293,21
113,00	1300,53
114,00	1295,38
115,00	1293,31
116,00	1295,46
117,00	1289,26
118,00	1294,45
119,00	1314,31
120,00	1295,07
121,00	1294,22
122,00	1298,39
123,00	1292,62
124,00	1293,52
125,00	1292,95
126,00	1298,71
127,00	1301,77
128,00	1296,21
129,00	1299,92
130,00	1298,57
131,00	1303,76
132,00	1295,03
133,00	1306,03
134,00	1299,93
135,00	1296,44
136,00	1295,40
137,00	1302,82
138,00	1318,22
139,00	1302,11
140,00	1300,61
141,00	1309,94
142,00	1298,46
143,00	1294,29
144,00	1299,02
145,00	1295,79
146,00	1299,71
147,00	1312,96
148,00	1345,62
149,00	1306,79
150,00	1295,64
151,00	1304,39
152,00	1294,11
153,00	1298,49
154,00	1299,61
155,00	1298,23
156,00	1305,95
157,00	1299,18
158,00	1304,16
159,00	1304,87
160,00	1307,11
161,00	1310,42
162,00	1295,26
163,00	1300,29
164,00	1295,37
165,00	1297,56
166,00	1297,31
167,00	1305,81
168,00	1296,21
169,00	1298,26
170,00	1297,40
171,00	1294,60
172,00	1309,19
173,00	1293,29
174,00	1297,95
175,00	1301,31
176,00	1300,94
177,00	1303,25
178,00	1307,17
179,00	1300,61
180,00	1308,75
181,00	1298,93
182,00	1295,48
183,00	1324,10
184,00	1298,85
185,00	1296,54
186,00	1298,30
187,00	1303,94
188,00	1311,36
189,00	1302,18
190,00	1295,24
191,00	1295,96
192,00	1305,89
193,00	1301,01
194,00	1303,93
195,00	1307,71
196,00	1311,92
197,00	1304,90
198,00	1320,74
199,00	1301,80
200,00	1298,86
201,00	1311,11
202,00	1306,74
203,00	1303,55
204,00	1305,92
205,00	1305,75
206,00	1303,77
207,00	1305,24
208,00	1306,05
209,00	1304,70
210,00	1313,16
211,00	1311,78
212,00	1299,97
213,00	1308,09
214,00	1310,37
215,00	1305,87
216,00	1303,13
217,00	1304,86
218,00	1314,88
219,00	1304,77
220,00	1317,88
221,00	1308,00
222,00	1312,39
223,00	1306,22
224,00	1305,48
225,00	1295,62
226,00	1307,92
227,00	1301,25
228,00	1303,76
229,00	1309,66
230,00	1303,20
231,00	1308,29
232,00	1308,92
233,00	1305,37
234,00	1309,30
235,00	1307,88
236,00	1325,06
237,00	1311,10
238,00	1303,03
239,00	1303,53
240,00	1311,33
241,00	1313,43
242,00	1306,44
243,00	1311,83
244,00	1303,00
245,00	1303,71
246,00	1299,87
247,00	1309,55
248,00	1312,51
249,00	1312,92
250,00	1316,92
251,00	1307,10
252,00	1316,05
253,00	1310,15
254,00	1314,18
255,00	1298,72
256,00	1310,12
257,00	1310,25
258,00	1308,32
259,00	1307,30
260,00	1304,62
261,00	1309,06
262,00	1299,87
263,00	1302,15
264,00	1309,08
265,00	1306,33
266,00	1308,07
267,00	1306,61
268,00	1313,95
269,00	1308,95
270,00	1312,02
271,00	1314,92
272,00	1312,34
273,00	1305,34
274,00	1304,89
275,00	1308,18
276,00	1303,91
277,00	1311,34
278,00	1304,38
279,00	1312,84
280,00	1306,64
281,00	1307,56
282,00	1305,31
283,00	1312,25
284,00	1309,53
285,00	1311,19
286,00	1311,18
287,00	1309,77
288,00	1304,72
289,00	1305,90
290,00	1316,02
291,00	1305,04
292,00	1315,69
293,00	1311,83
294,00	1313,90
295,00	1311,45
296,00	1302,56
297,00	1302,67
298,00	1310,33
299,00	1312,57
300,00	1310,34
301,00	1312,91
302,00	1309,91
303,00	1313,66
304,00	1305,84
305,00	1313,02
306,00	1308,33
307,00	1303,80
308,00	1311,56
309,00	1308,34
310,00	1310,34
311,00	1306,63
312,00	1311,33
313,00	1324,84
314,00	1315,28
315,00	1306,73
316,00	1310,92
317,00	1305,05
318,00	1303,06
319,00	1310,69
320,00	1309,01
321,00	1307,74
322,00	1302,15
323,00	1316,87
324,00	1313,41
325,00	1313,86
326,00	1305,85
327,00	1307,88
328,00	1314,72
329,00	1317,40
330,00	1310,85
331,00	1307,10
332,00	1306,02
333,00	1313,34
334,00	1312,67
335,00	1312,05
336,00	1314,30
337,00	1310,37
338,00	1315,60
339,00	1306,01
340,00	1306,82
341,00	1305,98
342,00	1308,24
343,00	1323,91
344,00	1332,75
345,00	1306,58
346,00	1306,99
347,00	1312,81
348,00	1305,95
349,00	1324,48
350,00	1312,82
351,00	1303,80
352,00	1326,48
353,00	1316,84
354,00	1305,54
355,00	1310,16
356,00	1313,38
357,00	1318,08
358,00	1306,34
359,00	1310,12
360,00	1312,20
361,00	1310,82
362,00	1321,59
363,00	1315,98
364,00	1322,74
365,00	1312,61
366,00	1310,74
367,00	1309,65
368,00	1310,32
369,00	1309,67
370,00	1306,21
371,00	1305,93
372,00	1323,12
373,00	1311,35
374,00	1311,65
375,00	1312,12
376,00	1309,71
377,00	1369,41
378,00	1313,88
379,00	1310,04
380,00	1308,79
381,00	1328,09
382,00	1315,83
383,00	1311,35
384,00	1308,55
385,00	1307,60
386,00	1313,70
387,00	1312,55
388,00	1314,23
389,00	1321,22
390,00	1316,13
391,00	1313,02
392,00	1310,07
393,00	1310,40
394,00	1312,63
395,00	1313,26
396,00	1315,74
397,00	1309,67
398,00	1316,12
399,00	1309,66
400,00	1317,93
401,00	1306,71
402,00	1311,99
403,00	1311,25
404,00	1312,74
405,00	1317,46
406,00	1310,34
407,00	1318,46
408,00	1309,44
409,00	1321,36
410,00	1317,36
411,00	1311,35
412,00	1309,42
413,00	1307,92
414,00	1327,92
415,00	1317,18
416,00	1323,97
417,00	1312,34
418,00	1307,71
419,00	1311,58
420,00	1317,53
421,00	1311,02
422,00	1313,91
423,00	1308,15
424,00	1308,88
425,00	1309,39
426,00	1308,35
427,00	1310,99
428,00	1309,52
429,00	1305,73
430,00	1308,01
431,00	1313,40
432,00	1311,58
433,00	1308,09
434,00	1320,35
435,00	1317,43
436,00	1327,26
437,00	1315,92
438,00	1310,65
439,00	1312,54
440,00	1314,77
441,00	1311,56
442,00	1316,82
443,00	1309,54
444,00	1310,09
445,00	1310,34
446,00	1316,76
447,00	1308,74
448,00	1326,86
449,00	1313,55
450,00	1305,99
451,00	1329,85
452,00	1326,08
453,00	1313,13
454,00	1317,49
455,00	1312,08
456,00	1311,95
457,00	1343,77
458,00	1313,55
459,00	1311,66
460,00	1307,61
461,00	1306,77
462,00	1308,00
463,00	1311,06
464,00	1310,70
465,00	1307,40
466,00	1316,08
467,00	1313,11
468,00	1310,18
469,00	1315,93
470,00	1323,03
471,00	1317,38
472,00	1328,74
473,00	1310,86
474,00	1308,51
475,00	1317,12
476,00	1310,84
477,00	1310,71
478,00	1317,78
479,00	1313,39
480,00	1315,19
481,00	1310,50
482,00	1311,40
483,00	1322,69
484,00	1316,10
485,00	1324,42
486,00	1305,74
487,00	1313,68
488,00	1317,60
489,00	1308,37
490,00	1315,72
491,00	1319,01
492,00	1316,10
493,00	1311,79
494,00	1314,08
495,00	1325,51
496,00	1317,49
497,00	1308,90
498,00	1313,98
499,00	1306,20
500,00	1305,86
501,00	1310,92
502,00	1315,86
503,00	1312,72
504,00	1313,83
505,00	1318,60
506,00	1322,45
507,00	1329,56
508,00	1321,63
509,00	1307,29
510,00	1312,08
511,00	1317,95
512,00	1313,76
513,00	1321,73
514,00	1337,46
515,00	1313,48
516,00	1313,78
517,00	1311,26
518,00	1313,48
519,00	1322,36
520,00	1323,58
521,00	1306,92
522,00	1314,18
523,00	1332,28
524,00	1318,24
525,00	1310,62
526,00	1311,17
527,00	1313,53
528,00	1319,46
529,00	1315,70
530,00	1312,99
531,00	1315,63
532,00	1307,96
533,00	1316,58
534,00	1311,17
535,00	1320,31
536,00	1318,43
537,00	1315,41
538,00	1326,37
539,00	1318,33
540,00	1310,10
541,00	1319,92
542,00	1311,17
543,00	1314,70
544,00	1318,44
545,00	1314,31
546,00	1310,62
547,00	1319,72
548,00	1315,76
549,00	1308,32
550,00	1314,83
551,00	1316,06
552,00	1337,52
553,00	1321,51
554,00	1317,53
555,00	1318,75
556,00	1310,57
557,00	1316,28
558,00	1307,34
559,00	1311,90
560,00	1322,15
561,00	1324,85
562,00	1320,81
563,00	1311,14
564,00	1315,84
565,00	1320,53
566,00	1315,28
567,00	1319,89
568,00	1315,90
569,00	1313,34
570,00	1317,44
571,00	1317,72
572,00	1309,24
573,00	1313,67
574,00	1312,99
575,00	1319,71
576,00	1322,46
577,00	1316,91
578,00	1306,54
579,00	1309,23
580,00	1314,08
581,00	1313,48
582,00	1310,21
583,00	1308,72
584,00	1309,92
585,00	1321,68
586,00	1311,73
587,00	1315,28
588,00	1310,26
589,00	1311,09
590,00	1320,09
591,00	1310,45
592,00	1316,86
593,00	1315,85
594,00	1314,33
595,00	1314,86
596,00	1321,50
597,00	1317,54
598,00	1308,41
599,00	1315,72
600,00	1315,39
601,00	1646,74
602,00	1339,64
603,00	1315,30
604,00	1314,08
605,00	1314,09
606,00	1315,76
607,00	1313,00
608,00	1314,37
609,00	1317,40
610,00	1314,94
611,00	1308,79
612,00	1318,86
613,00	1310,83
614,00	1315,91
615,00	1315,79
616,00	1319,85
617,00	1327,87
618,00	1317,03
619,00	1311,11
620,00	1313,54
621,00	1316,16
622,00	1310,36
623,00	1315,15
624,00	1308,45
625,00	1331,82
626,00	1309,37
627,00	1318,23
628,00	1316,67
629,00	1318,38
630,00	1313,86
631,00	1309,48
632,00	1316,95
633,00	1308,86
634,00	1312,65
635,00	1322,70
636,00	1316,76
637,00	1313,64
638,00	1311,40
639,00	1312,97
640,00	1315,51
641,00	1314,96
642,00	1318,40
643,00	1312,66
644,00	1312,53
645,00	1315,22
646,00	1311,73
647,00	1312,68
648,00	1310,09
649,00	1310,83
650,00	1312,39
651,00	1313,43
652,00	1315,40
653,00	1313,64
654,00	1313,80
655,00	1313,11
656,00	1317,69
657,00	1316,43
658,00	1321,29
659,00	1316,66
660,00	1352,71
661,00	1324,46
662,00	1314,59
663,00	1313,47
664,00	1320,50
665,00	1312,32
666,00	1323,62
667,00	1311,02
668,00	1309,21
669,00	1319,68
670,00	1316,44
671,00	1316,26
672,00	1314,82
673,00	1321,84
674,00	1318,00
675,00	1309,31
676,00	1326,18
677,00	1315,85
678,00	1312,62
679,00	1311,29
680,00	1311,02
681,00	1311,39
682,00	1318,94
683,00	1311,61
684,00	1311,19
685,00	1315,03
686,00	1314,89
687,00	1320,15
688,00	1311,51
689,00	1326,98
690,00	1323,12
691,00	1313,71
692,00	1317,32
693,00	1313,71
694,00	1307,49
695,00	1323,20
696,00	1318,05
697,00	1311,41
698,00	1317,13
699,00	1347,16
700,00	1315,91
701,00	1325,14
702,00	1320,86
703,00	1313,88
704,00	1324,84
705,00	1316,05
706,00	1319,89
707,00	1316,88
708,00	1321,63
709,00	1311,79
710,00	1313,40
711,00	1319,14
712,00	1311,74
713,00	1314,84
714,00	1315,02
715,00	1314,19
716,00	1319,18
717,00	1317,08
718,00	1316,94
719,00	1315,39
720,00	1323,33
721,00	1319,07
722,00	1317,23
723,00	1336,47
724,00	1323,23
725,00	1321,23
726,00	1316,88
727,00	1310,37
728,00	1317,04
729,00	1328,81
730,00	1313,25
731,00	1317,01
732,00	1316,64
733,00	1309,93
734,00	1323,35
735,00	1313,43
736,00	1310,06
737,00	1315,14
738,00	1311,36
739,00	1315,20
740,00	1315,21
741,00	1320,20
742,00	1339,90
743,00	1320,93
744,00	1318,59
745,00	1312,70
746,00	1316,21
747,00	1316,62
748,00	1325,15
749,00	1326,94
750,00	1318,58
751,00	1322,96
752,00	1336,57
753,00	1352,29
754,00	1357,54
755,00	1376,63
756,00	1401,46
757,00	1478,79
758,00	1701,55
759,00	1690,77
760,00	1487,63
761,00	1396,85
762,00	1359,42
763,00	1346,44
764,00	1321,85
765,00	1323,48
766,00	1317,45
767,00	1321,73
768,00	1312,36
769,00	1313,90
770,00	1316,92
771,00	1314,70
772,00	1315,21
773,00	1318,31
774,00	1317,89
775,00	1321,34
776,00	1309,46
777,00	1313,55
778,00	1317,16
779,00	1317,79
780,00	1315,38
781,00	1309,86
782,00	1321,68
783,00	1317,25
784,00	1322,38
785,00	1330,38
786,00	1320,43
787,00	1315,20
788,00	1319,49
789,00	1318,88
790,00	1317,69
791,00	1314,93
792,00	1315,22
793,00	1312,60
794,00	1313,66
795,00	1314,00
796,00	1314,14
797,00	1314,44
798,00	1319,40
799,00	1315,19
800,00	1320,24
801,00	1322,67
802,00	1337,91
803,00	1325,32
804,00	1317,57
805,00	1316,87
806,00	1319,10
807,00	1311,11
808,00	1311,52
809,00	1310,48
810,00	1317,71
811,00	1311,90
812,00	1321,29
813,00	1316,59
814,00	1322,60
815,00	1318,44
816,00	1323,93
817,00	1317,60
818,00	1313,71
819,00	1319,88
820,00	1309,87
821,00	1323,46
822,00	1314,10
823,00	1315,97
824,00	1314,57
825,00	1311,95
826,00	1311,04
827,00	1317,02
828,00	1308,44
829,00	1327,26
830,00	1313,71
831,00	1321,03
832,00	1315,76
833,00	1314,54
834,00	1317,67
835,00	1308,59
836,00	1316,27
837,00	1317,30
838,00	1310,97
839,00	1313,59
840,00	1312,43
841,00	1587,05
842,00	1333,85
843,00	1329,19
844,00	1318,75
845,00	1326,58
846,00	1317,16
847,00	1312,04
848,00	1316,11
849,00	1312,29
850,00	1318,14
851,00	1313,73
852,00	1307,37
853,00	1320,16
854,00	1310,22
855,00	1312,37
856,00	1313,92
857,00	1318,81
858,00	1315,51
859,00	1324,09
860,00	1323,21
861,00	1314,98
862,00	1312,68
863,00	1314,15
864,00	1320,61
865,00	1309,39
866,00	1326,38
867,00	1318,65
868,00	1308,94
869,00	1320,67
870,00	1312,35
871,00	1314,33
872,00	1315,01
873,00	1310,73
874,00	1312,67
875,00	1315,72
876,00	1317,10
877,00	1307,37
878,00	1314,61
879,00	1322,03
880,00	1320,92
881,00	1308,81
882,00	1323,10
883,00	1316,26
884,00	1307,72
885,00	1313,11
886,00	1314,27
887,00	1317,53
888,00	1311,78
889,00	1311,16
890,00	1322,19
891,00	1327,51
892,00	1315,47
893,00	1309,48
894,00	1309,38
895,00	1309,17
896,00	1313,16
897,00	1309,73
898,00	1317,35
899,00	1310,70
900,00	1320,20
901,00	1313,05
902,00	1308,79
903,00	1316,20
904,00	1317,30
905,00	1316,57
906,00	1320,88
907,00	1316,84
908,00	1314,73
909,00	1310,77
910,00	1316,43
911,00	1317,37
912,00	1317,24
913,00	1316,24
914,00	1313,71
915,00	1314,60
916,00	1320,12
917,00	1315,09
918,00	1311,21
919,00	1308,68
920,00	1314,50
921,00	1313,58
922,00	1319,43
923,00	1318,79
924,00	1317,17
925,00	1315,38
926,00	1317,82
927,00	1315,35
928,00	1315,45
929,00	1316,82
930,00	1312,47
931,00	1317,24
932,00	1311,76
933,00	1323,90
934,00	1311,51
935,00	1323,73
936,00	1316,74
937,00	1314,67
938,00	1313,35
939,00	1323,38
940,00	1309,72
941,00	1310,34
942,00	1315,44
943,00	1310,75
944,00	1335,99
945,00	1317,00
946,00	1311,74
947,00	1314,69
948,00	1323,15
949,00	1315,89
950,00	1323,78
951,00	1317,65
952,00	1313,43
953,00	1309,47
954,00	1314,96
955,00	1324,03
956,00	1312,00
957,00	1312,53
958,00	1315,68
959,00	1314,86
960,00	1311,50
961,00	1318,79
962,00	1314,66
963,00	1314,09
964,00	1341,45
965,00	1316,49
966,00	1317,52
967,00	1321,23
968,00	1312,83
969,00	1331,74
970,00	1314,90
971,00	1319,93
972,00	1311,50
973,00	1320,55
974,00	1313,69
975,00	1313,51
976,00	1309,68
977,00	1321,60
978,00	1318,03
979,00	1311,57
980,00	1311,37
981,00	1318,76
982,00	1310,13
983,00	1309,19
984,00	1311,18
985,00	1313,11
986,00	1315,97
987,00	1322,80
988,00	1331,25
989,00	1312,59
990,00	1314,51
991,00	1315,91
992,00	1317,08
993,00	1311,32
994,00	1312,47
995,00	1317,23
996,00	1312,80
997,00	1319,64
998,00	1312,96
999,00	1326,29
1000,00	1309,38
1001,00	1322,23
1002,00	1307,61
1003,00	1311,32
1004,00	1325,74
1005,00	1310,56
1006,00	1313,24
1007,00	1317,95
1008,00	1312,30
1009,00	1312,00
1010,00	1314,88
1011,00	1312,79
1012,00	1317,97
1013,00	1310,20
1014,00	1312,76
1015,00	1317,06
1016,00	1316,56
1017,00	1311,46
1018,00	1321,11
1019,00	1317,83
1020,00	1313,89
1021,00	1317,08
1022,00	1316,87
1023,00	1311,74
1024,00	1317,76
1025,00	1312,68
1026,00	1315,08
1027,00	1312,29
1028,00	1322,04
1029,00	1314,00
1030,00	1311,37
1031,00	1309,65
1032,00	1309,83
1033,00	1319,91
1034,00	1313,03
1035,00	1324,54
1036,00	1317,33
1037,00	1320,41
1038,00	1316,48
1039,00	1309,76
1040,00	1313,77
1041,00	1312,82
1042,00	1321,35
1043,00	1320,22
1044,00	1355,16
1045,00	1320,89
1046,00	1313,42
1047,00	1312,27
1048,00	1318,37
1049,00	1313,63
1050,00	1314,90
1051,00	1313,83
1052,00	1318,86
1053,00	1318,95
1054,00	1310,84
1055,00	1318,20
1056,00	1319,43
1057,00	1316,57
1058,00	1315,35
1059,00	1314,13
1060,00	1312,87
1061,00	1314,11
1062,00	1310,17
1063,00	1309,69
1064,00	1320,18
1065,00	1312,03
1066,00	1310,46
1067,00	1316,86
1068,00	1317,62
1069,00	1318,77
1070,00	1318,75
1071,00	1321,80
1072,00	1318,50
1073,00	1316,90
1074,00	1314,01
1075,00	1328,24
1076,00	1312,19
1077,00	1311,59
1078,00	1316,10
1079,00	1310,47
1080,00	1330,39
1081,00	1321,34
1082,00	1314,87
1083,00	1318,51
1084,00	1312,02
1085,00	1325,98
1086,00	1310,45
1087,00	1323,17
1088,00	1317,98
1089,00	1314,56
1090,00	1315,99
1091,00	1322,00
1092,00	1324,68
1093,00	1333,92
1094,00	1317,73
1095,00	1315,90
1096,00	1315,51
1097,00	1317,32
1098,00	1311,45
1099,00	1322,56
1100,00	1312,21
1101,00	1314,96
1102,00	1313,48
1103,00	1322,20
1104,00	1319,78
1105,00	1328,04
1106,00	1314,16
1107,00	1316,78
1108,00	1315,82
1109,00	1313,12
1110,00	1312,75
1111,00	1327,09
1112,00	1321,04
1113,00	1313,76
1114,00	1315,14
1115,00	1309,50
1116,00	1315,60
1117,00	1313,76
1118,00	1310,55
1119,00	1318,70
1120,00	1324,09
1121,00	1348,05
1122,00	1320,45
1123,00	1313,66
1124,00	1321,98
1125,00	1312,02
1126,00	1316,27
1127,00	1318,13
1128,00	1335,54
1129,00	1312,39
1130,00	1308,36
1131,00	1320,28
1132,00	1315,28
1133,00	1318,39
1134,00	1326,31
1135,00	1321,63
1136,00	1323,17
1137,00	1322,01
1138,00	1316,06
1139,00	1317,85
1140,00	1313,85
1141,00	1310,95
1142,00	1311,51
1143,00	1316,47
1144,00	1324,46
1145,00	1331,03
1146,00	1317,32
1147,00	1321,11
1148,00	1313,87
1149,00	1310,67
1150,00	1313,29
1151,00	1320,98
1152,00	1318,11
1153,00	1313,20
1154,00	1320,10
1155,00	1312,29
1156,00	1319,66
1157,00	1315,02
1158,00	1319,34
1159,00	1313,11
1160,00	1314,26
1161,00	1323,71
1162,00	1321,62
1163,00	1312,41
1164,00	1312,49
1165,00	1324,66
1166,00	1325,06
1167,00	1313,86
1168,00	1317,65
1169,00	1314,32
1170,00	1314,12
1171,00	1326,58
1172,00	1311,44
1173,00	1318,88
1174,00	1315,87
1175,00	1314,67
1176,00	1314,51
1177,00	1321,34
1178,00	1332,18
1179,00	1322,99
1180,00	1315,33
1181,00	1319,71
1182,00	1315,73
1183,00	1319,14
1184,00	1312,45
1185,00	1316,91
1186,00	1317,18
1187,00	1316,50
1188,00	1321,79
1189,00	1312,70
1190,00	1313,07
1191,00	1315,28
1192,00	1326,54
1193,00	1315,61
1194,00	1312,83
1195,00	1318,83
1196,00	1322,23
1197,00	1313,71
1198,00	1325,64
1199,00	1321,09
1200,00	1315,79
1201,00	1312,72
1202,00	1317,50
1203,00	1317,74
1204,00	1311,67
1205,00	1316,28
1206,00	1312,02
1207,00	1318,90
1208,00	1317,48
1209,00	1309,97
1210,00	1312,23
1211,00	1319,78
1212,00	1314,11
1213,00	1309,96
1214,00	1308,82
1215,00	1317,97
1216,00	1309,85
1217,00	1319,79
1218,00	1314,40
1219,00	1314,74
1220,00	1315,03
1221,00	1324,71
1222,00	1320,04
1223,00	1311,94
1224,00	1317,18
1225,00	1313,23
1226,00	1314,04
1227,00	1316,47
1228,00	1312,60
1229,00	1313,82
1230,00	1314,35
1231,00	1315,85
1232,00	1311,44
1233,00	1310,65
1234,00	1315,57
1235,00	1312,15
1236,00	1318,78
1237,00	1317,10
1238,00	1319,48
1239,00	1317,79
1240,00	1311,57
1241,00	1319,04
1242,00	1316,94
1243,00	1318,40
1244,00	1312,23
1245,00	1311,72
1246,00	1315,03
1247,00	1325,00
1248,00	1317,40
1249,00	1320,80
1250,00	1314,00
1251,00	1320,49
1252,00	1317,99
1253,00	1320,81
1254,00	1315,46
1255,00	1319,79
1256,00	1315,82
1257,00	1316,44
1258,00	1310,21
1259,00	1307,75
1260,00	1320,64
1261,00	1316,77
1262,00	1313,95
1263,00	1313,57
1264,00	1316,60
1265,00	1312,43
1266,00	1332,90
1267,00	1315,98
1268,00	1312,37
1269,00	1314,36
1270,00	1321,42
1271,00	1313,52
1272,00	1315,41
1273,00	1319,00
1274,00	1314,47
1275,00	1314,38
1276,00	1329,03
1277,00	1382,98
1278,00	1324,37
1279,00	1317,94
1280,00	1315,42
1281,00	1311,25
1282,00	1313,55
1283,00	1312,24
1284,00	1313,13
1285,00	1332,62
1286,00	1311,33
1287,00	1315,86
1288,00	1319,77
1289,00	1333,41
1290,00	1316,80
1291,00	1311,13
1292,00	1317,10
1293,00	1313,25
1294,00	1311,02
1295,00	1314,67
1296,00	1322,89
1297,00	1312,86
1298,00	1315,47
1299,00	1310,77
1300,00	1316,01
1301,00	1317,33
1302,00	1327,01
1303,00	1315,81
1304,00	1330,72
1305,00	1320,62
1306,00	1318,30
1307,00	1316,26
1308,00	1321,35
1309,00	1310,88
1310,00	1311,29
1311,00	1315,10
1312,00	1314,22
1313,00	1315,41
1314,00	1315,25
1315,00	1327,58
1316,00	1311,10
1317,00	1311,92
1318,00	1316,40
1319,00	1318,92
1320,00	1314,90
1321,00	1320,99
1322,00	1367,74
1323,00	1313,52
1324,00	1311,00
1325,00	1310,77
1326,00	1312,44
1327,00	1309,02
1328,00	1314,42
1329,00	1310,32
1330,00	1315,20
1331,00	1318,02
1332,00	1313,07
1333,00	1315,77
1334,00	1310,89
1335,00	1318,61
1336,00	1319,34
1337,00	1319,78
1338,00	1313,44
1339,00	1310,48
1340,00	1315,67
1341,00	1318,66
1342,00	1318,81
1343,00	1324,54
1344,00	1318,78
1345,00	1309,54
1346,00	1310,33
1347,00	1316,39
1348,00	1317,63
1349,00	1311,32
1350,00	1331,75
1351,00	1326,28
1352,00	1316,15
1353,00	1316,20
1354,00	1343,39
1355,00	1311,69
1356,00	1308,32
1357,00	1312,17
1358,00	1315,96
1359,00	1322,15
1360,00	1313,98
1361,00	1312,09
1362,00	1312,89
1363,00	1314,09
1364,00	1318,76
1365,00	1325,67
1366,00	1311,98
1367,00	1313,09
1368,00	1314,76
1369,00	1312,40
1370,00	1320,20
1371,00	1314,12
1372,00	1310,70
1373,00	1328,78
1374,00	1314,23
1375,00	1316,17
1376,00	1316,49
1377,00	1316,79
1378,00	1324,17
1379,00	1318,06
1380,00	1338,82
1381,00	1312,43
1382,00	1309,71
1383,00	1329,72
1384,00	1313,29
1385,00	1319,07
1386,00	1322,50
1387,00	1326,71
1388,00	1318,77
1389,00	1321,71
1390,00	1313,20
1391,00	1312,21
1392,00	1326,58
1393,00	1318,72
1394,00	1314,69
1395,00	1313,34
1396,00	1324,23
1397,00	1311,82
1398,00	1339,31
1399,00	1359,84
1400,00	1322,15
1401,00	1325,78
1402,00	1358,16
1403,00	1319,82
1404,00	1315,38
1405,00	1311,39
1406,00	1313,67
1407,00	1316,74
1408,00	1316,19
1409,00	1313,44
1410,00	1309,73
1411,00	1371,77
1412,00	1320,42
1413,00	1308,76
1414,00	1309,89
1415,00	1309,52
1416,00	1310,40
1417,00	1307,10
1418,00	1318,44
1419,00	1321,12
1420,00	1311,46
1421,00	1311,65
1422,00	1311,21
1423,00	1311,19
1424,00	1318,13
1425,00	1313,52
1426,00	1318,62
1427,00	1317,46
1428,00	1307,05
1429,00	1314,35
1430,00	1311,35
1431,00	1310,46
1432,00	1315,64
1433,00	1315,49
1434,00	1320,24
1435,00	1315,71
1436,00	1312,34
1437,00	1321,28
1438,00	1311,46
1439,00	1312,84
1440,00	1315,57
1441,00	1308,84
1442,00	1311,67
1443,00	1310,31
1444,00	1311,91
1445,00	1306,88
1446,00	1317,82
1447,00	1314,08
1448,00	1318,59
1449,00	1314,52
1450,00	1313,81
1451,00	1310,61
1452,00	1323,34
1453,00	1314,11
1454,00	1322,51
1455,00	1319,21
1456,00	1310,51
1457,00	1325,29
1458,00	1321,27
1459,00	1312,23
1460,00	1310,88
1461,00	1318,49
1462,00	1314,45
1463,00	1317,28
1464,00	1314,69
1465,00	1313,69
1466,00	1311,19
1467,00	1318,52
1468,00	1311,84
1469,00	1311,01
1470,00	1309,66
1471,00	1318,65
1472,00	1312,81
1473,00	1309,58
1474,00	1317,24
1475,00	1309,82
1476,00	1331,08
1477,00	1321,34
1478,00	1359,87
1479,00	1329,48
1480,00	1317,71
1481,00	1312,46
1482,00	1314,54
1483,00	1312,65
1484,00	1322,19
1485,00	1321,49
1486,00	1311,16
1487,00	1320,27
1488,00	1318,78
1489,00	1318,33
1490,00	1316,46
1491,00	1316,64
1492,00	1315,93
1493,00	1308,30
1494,00	1307,44
1495,00	1318,67
1496,00	1313,39
1497,00	1324,79
1498,00	1322,08
1499,00	1321,89
1500,00	1315,12
1501,00	1316,55
1502,00	1310,47
1503,00	1330,62
1504,00	1312,60
1505,00	1322,62
1506,00	1308,34
1507,00	1309,12
1508,00	1314,99
1509,00	1312,36
1510,00	1308,88
1511,00	1320,14
1512,00	1313,19
1513,00	1314,97
1514,00	1314,02
1515,00	1316,64
1516,00	1366,30
1517,00	1325,66
1518,00	1312,39
1519,00	1314,87
1520,00	1319,73
1521,00	1312,43
1522,00	1316,84
1523,00	1315,77
1524,00	1311,82
1525,00	1310,74
1526,00	1310,07
1527,00	1309,30
1528,00	1315,43
1529,00	1306,90
1530,00	1309,69
1531,00	1314,96
1532,00	1311,17
1533,00	1308,94
1534,00	1315,06
1535,00	1310,52
1536,00	1318,28
1537,00	1320,88
1538,00	1320,75
1539,00	1319,94
1540,00	1317,04
1541,00	1318,41
1542,00	1312,11
1543,00	1312,61
1544,00	1319,79
1545,00	1315,00
1546,00	1313,90
1547,00	1316,12
1548,00	1312,97
1549,00	1313,66
1550,00	1314,59
1551,00	1314,76
1552,00	1311,12
1553,00	1310,44
1554,00	1307,41
1555,00	1312,10
1556,00	1310,27
1557,00	1316,69
1558,00	1315,22
1559,00	1311,51
1560,00	1313,34
1561,00	1311,25
1562,00	1321,96
1563,00	1315,14
1564,00	1311,05
1565,00	1313,69
1566,00	1317,96
1567,00	1318,16
1568,00	1314,36
1569,00	1315,74
1570,00	1316,57
1571,00	1317,58
1572,00	1318,90
1573,00	1317,14
1574,00	1323,31
1575,00	1311,79
1576,00	1310,42
1577,00	1310,71
1578,00	1318,37
1579,00	1311,64
1580,00	1311,12
1581,00	1312,81
1582,00	1309,36
1583,00	1327,07
1584,00	1314,59
1585,00	1307,10
1586,00	1315,76
1587,00	1315,98
1588,00	1322,11
1589,00	1310,86
1590,00	1316,84
1591,00	1315,68
1592,00	1330,39
1593,00	1308,80
1594,00	1314,37
1595,00	1308,60
1596,00	1313,71
1597,00	1309,54
1598,00	1313,21
1599,00	1314,01
1600,00	1309,21
1601,00	1317,23
1602,00	1322,93
1603,00	1314,78
1604,00	1311,64
1605,00	1325,65
1606,00	1307,94
1607,00	1312,42
1608,00	1310,68
1609,00	1314,58
1610,00	1310,24
1611,00	1321,72
1612,00	1310,99
1613,00	1314,96
1614,00	1309,07
1615,00	1310,61
1616,00	1320,88
1617,00	1313,32
1618,00	1320,67
1619,00	1312,95
1620,00	1318,40
1621,00	1317,75
1622,00	1316,06
1623,00	1319,35
1624,00	1317,54
1625,00	1312,39
1626,00	1329,29
1627,00	1316,52
1628,00	1314,84
1629,00	1364,94
1630,00	1318,19
1631,00	1312,40
1632,00	1317,81
1633,00	1313,33
1634,00	1318,00
1635,00	1313,42
1636,00	1314,00
1637,00	1313,27
1638,00	1309,65
1639,00	1310,37
1640,00	1317,37
1641,00	1323,01
1642,00	1320,71
1643,00	1309,85
1644,00	1332,09
1645,00	1318,14
1646,00	1312,10
1647,00	1322,52
1648,00	1315,45
1649,00	1315,21
1650,00	1330,16
1651,00	1322,74
1652,00	1310,70
1653,00	1312,34
1654,00	1316,72
1655,00	1316,90
1656,00	1312,48
1657,00	1322,29
1658,00	1309,40
1659,00	1316,83
1660,00	1319,18
1661,00	1321,24
1662,00	1318,11
1663,00	1320,40
1664,00	1316,40
1665,00	1312,15
1666,00	1316,20
1667,00	1328,15
1668,00	1311,09
1669,00	1314,67
1670,00	1317,09
1671,00	1311,91
1672,00	1309,51
1673,00	1316,34
1674,00	1318,50
1675,00	1316,41
1676,00	1315,34
1677,00	1313,38
1678,00	1316,66
1679,00	1316,30
1680,00	1317,85
1681,00	1319,30
1682,00	1333,22
1683,00	1319,15
1684,00	1321,34
1685,00	1318,24
1686,00	1311,63
1687,00	1309,56
1688,00	1319,44
1689,00	1310,38
1690,00	1313,17
1691,00	1310,69
1692,00	1311,88
1693,00	1325,67
1694,00	1311,30
1695,00	1314,15
1696,00	1314,08
1697,00	1315,68
1698,00	1309,77
1699,00	1316,20
1700,00	1317,07
1701,00	1323,20
1702,00	1309,60
1703,00	1309,75
1704,00	1311,90
1705,00	1319,03
1706,00	1311,01
1707,00	1312,12
1708,00	1312,27
1709,00	1319,60
1710,00	1316,34
1711,00	1313,58
1712,00	1314,56
1713,00	1330,15
1714,00	1319,43
1715,00	1311,96
1716,00	1324,89
1717,00	1313,83
1718,00	1327,34
1719,00	1320,18
1720,00	1312,29
1721,00	1312,75
1722,00	1310,98
1723,00	1321,58
1724,00	1312,10
1725,00	1314,15
1726,00	1317,20
1727,00	1311,25
1728,00	1320,63
1729,00	1307,83
1730,00	1327,76
1731,00	1319,87
1732,00	1330,00
1733,00	1317,71
1734,00	1310,54
1735,00	1316,01
1736,00	1316,48
1737,00	1311,32
1738,00	1313,86
1739,00	1319,99
1740,00	1322,40
1741,00	1329,56
1742,00	1316,64
1743,00	1311,82
1744,00	1311,42
1745,00	1311,93
1746,00	1314,36
1747,00	1315,90
1748,00	1319,84
1749,00	1328,31
1750,00	1320,92
1751,00	1332,44
1752,00	1313,85
1753,00	1309,19
1754,00	1312,82
1755,00	1316,06
1756,00	1315,62
1757,00	1321,68
1758,00	1309,08
1759,00	1309,15
1760,00	1311,06
1761,00	1316,87
1762,00	1316,12
1763,00	1309,28
1764,00	1320,06
1765,00	1313,74
1766,00	1312,47
1767,00	1310,03
1768,00	1317,07
1769,00	1314,45
1770,00	1309,44
1771,00	1313,71
1772,00	1327,82
1773,00	1311,40
1774,00	1308,40
1775,00	1310,88
1776,00	1312,52
1777,00	1308,66
1778,00	1310,99
1779,00	1308,89
1780,00	1309,50
1781,00	1309,83
1782,00	1311,24
1783,00	1316,36
1784,00	1313,39
1785,00	1313,33
1786,00	1318,25
1787,00	1310,70
1788,00	1317,84
1789,00	1316,93
1790,00	1324,62
1791,00	1311,42
1792,00	1318,26
1793,00	1309,60
1794,00	1315,52
1795,00	1309,60
1796,00	1309,78
1797,00	1306,74
1798,00	1311,63
1799,00	1308,83
1800,00	1319,25
1801,00	1315,84
1802,00	1322,15
1803,00	1313,25
1804,00	1317,38
1805,00	1317,62
1806,00	1315,95
1807,00	1315,59
1808,00	1310,70
1809,00	1313,40
1810,00	1317,95
1811,00	1315,70
1812,00	1311,85
1813,00	1312,81
1814,00	1317,85
1815,00	1319,54
1816,00	1333,47
1817,00	1314,92
1818,00	1355,30
1819,00	1324,49
1820,00	1321,05
1821,00	1311,66
1822,00	1307,22
1823,00	1310,63
1824,00	1314,46
1825,00	1328,51
1826,00	1312,75
1827,00	1328,10
1828,00	1333,00
1829,00	1317,59
1830,00	1321,08
1831,00	1312,05
1832,00	1311,67
1833,00	1308,87
1834,00	1310,60
1835,00	1313,69
1836,00	1309,87
1837,00	1309,99
1838,00	1316,79
1839,00	1324,54
1840,00	1333,64
1841,00	1315,25
1842,00	1316,89
1843,00	1319,62
1844,00	1330,97
1845,00	1316,83
1846,00	1307,07
1847,00	1310,72
1848,00	1315,74
1849,00	1313,78
1850,00	1317,21
1851,00	1322,36
1852,00	1311,85
1853,00	1313,08
1854,00	1313,20
1855,00	1309,63
1856,00	1311,03
1857,00	1310,92
1858,00	1327,07
1859,00	1309,75
1860,00	1317,99
1861,00	1346,88
1862,00	1316,14
1863,00	1312,12
1864,00	1313,31
1865,00	1317,21
1866,00	1319,72
1867,00	1310,85
1868,00	1313,04
1869,00	1313,50
1870,00	1312,62
1871,00	1309,14
1872,00	1314,75
1873,00	1315,20
1874,00	1314,05
1875,00	1314,49
1876,00	1310,32
1877,00	1315,59
1878,00	1324,66
1879,00	1319,73
1880,00	1308,10
1881,00	1316,76
1882,00	1313,10
1883,00	1310,61
1884,00	1312,50
1885,00	1315,88
1886,00	1316,12
1887,00	1307,99
1888,00	1310,60
1889,00	1315,87
1890,00	1310,57
1891,00	1318,48
1892,00	1322,65
1893,00	1311,70
1894,00	1320,90
1895,00	1315,99
1896,00	1321,99
1897,00	1331,85
1898,00	1310,00
1899,00	1316,76
1900,00	1312,38
1901,00	1311,82
1902,00	1312,26
1903,00	1324,21
1904,00	1316,18
1905,00	1351,20
1906,00	1314,85
1907,00	1309,39
1908,00	1345,86
1909,00	1312,63
1910,00	1314,40
1911,00	1318,94
1912,00	1316,14
1913,00	1324,03
1914,00	1312,59
1915,00	1313,91
1916,00	1317,89
1917,00	1314,95
1918,00	1317,53
1919,00	1315,19
1920,00	1312,83
1921,00	1321,23
1922,00	1313,31
1923,00	1315,42
1924,00	1316,50
1925,00	1308,39
1926,00	1312,77
1927,00	1320,40
1928,00	1323,65
1929,00	1316,24
1930,00	1311,53
1931,00	1317,46
1932,00	1332,40
1933,00	1315,66
1934,00	1308,65
1935,00	1311,73
1936,00	1316,57
1937,00	1311,62
1938,00	1315,91
1939,00	1309,09
1940,00	1330,74
1941,00	1313,24
1942,00	1314,44
1943,00	1312,34
1944,00	1316,03
1945,00	1313,59
1946,00	1306,83
1947,00	1310,94
1948,00	1333,91
1949,00	1312,69
1950,00	1320,50
1951,00	1310,26
1952,00	1312,74
1953,00	1308,27
1954,00	1319,40
1955,00	1316,22
1956,00	1315,44
1957,00	1319,52
1958,00	1309,49
1959,00	1312,36
1960,00	1307,50
1961,00	1320,61
1962,00	1308,45
1963,00	1318,35
1964,00	1307,76
1965,00	1317,06
1966,00	1309,71
1967,00	1320,84
1968,00	1310,03
1969,00	1310,82
1970,00	1316,21
1971,00	1320,50
1972,00	1315,03
1973,00	1314,60
1974,00	1314,91
1975,00	1321,13
1976,00	1320,32
1977,00	1318,07
1978,00	1317,65
1979,00	1313,48
1980,00	1350,40
1981,00	1314,31
1982,00	1309,46
1983,00	1315,55
1984,00	1314,33
1985,00	1322,22
1986,00	1309,30
1987,00	1308,26
1988,00	1312,84
1989,00	1315,45
1990,00	1324,15
1991,00	1319,05
1992,00	1318,43
1993,00	1338,26
1994,00	1314,16
1995,00	1307,79
1996,00	1316,80
1997,00	1318,32
1998,00	1317,51
1999,00	1310,79
2000,00	1309,21
2001,00	1313,14
2002,00	1323,20
2003,00	1308,67
2004,00	1320,62
2005,00	1310,06
2006,00	1324,38
2007,00	1312,69
2008,00	1309,56
2009,00	1324,09
2010,00	1310,30
2011,00	1312,12
2012,00	1313,61
2013,00	1311,90
2014,00	1315,46
2015,00	1312,57
2016,00	1312,41
2017,00	1312,23
2018,00	1315,62
2019,00	1312,54
2020,00	1310,78
2021,00	1318,53
2022,00	1313,81
2023,00	1313,39
2024,00	1310,04
2025,00	1322,98
2026,00	1310,40
2027,00	1310,58
2028,00	1316,37
2029,00	1309,19
2030,00	1307,46
2031,00	1309,82
2032,00	1311,06
2033,00	1314,75
2034,00	1324,91
2035,00	1314,48
2036,00	1314,99
2037,00	1311,09
2038,00	1316,06
2039,00	1312,81
2040,00	1315,19
2041,00	1312,84
2042,00	1308,33
2043,00	1313,72
2044,00	1316,82
2045,00	1310,82
2046,00	1310,82
2047,00	1310,82
>>>>>End Processed Spectral Data<<<<<
