SpectraSuite Datei
++++++++++++++++++++++++++++++++++++
Datum: Thu Sep 19 16:07:18 CEST 2024
Benutzer: Student
Dark-Spektrum vorhanden: Nein
Referenz-Spektrum vorhanden: Nein
Zahl der probierten Teilspektren: 1
Spektrometer: USB2+H15728
Integrationszeit (usec): 800000 (USB2+H15728)
Spektren Durchschnitt berechnet: 80 (USB2+H15728)
Boxcar Glättung: 0 (USB2+H15728)
Dunkelstromkorrektur: Nein (USB2+H15728)
Puls/Lampe aktiviert: Nein (USB2+H15728)
Correct for Detector Non-linearity: Nein (USB2+H15728)
Streulichtkorrektur: Nein (USB2+H15728)
Anzahl Pixel in verarbeitetem Spektrum: 2048
>>>>>Begin Processed Spectral Data<<<<<
0,00	983,96
1,00	983,96
2,00	983,96
3,00	956,46
4,00	1049,82
5,00	1038,85
6,00	1032,56
7,00	1044,73
8,00	1126,24
9,00	1089,29
10,00	1097,95
11,00	1163,69
12,00	1109,47
13,00	1328,99
14,00	1132,53
15,00	1176,00
16,00	1174,95
17,00	1277,67
18,00	1203,91
19,00	1341,01
20,00	1238,23
21,00	1251,16
22,00	1297,36
23,00	1358,45
24,00	1288,52
25,00	1334,11
26,00	1362,81
27,00	1430,13
28,00	1353,36
29,00	1373,19
30,00	1415,09
31,00	1401,13
32,00	1537,00
33,00	1395,98
34,00	1427,67
35,00	1438,84
36,00	1427,46
37,00	1376,00
38,00	1412,19
39,00	1548,53
40,00	1392,27
41,00	1494,46
42,00	1417,49
43,00	1469,62
44,00	1396,42
45,00	1402,07
46,00	1373,87
47,00	1458,80
48,00	1401,02
49,00	1513,16
50,00	1405,73
51,00	1439,90
52,00	1397,59
53,00	1521,35
54,00	1420,59
55,00	1389,17
56,00	1488,64
57,00	1408,36
58,00	1399,90
59,00	1402,86
60,00	1337,82
61,00	1403,88
62,00	1380,04
63,00	1356,25
64,00	1369,92
65,00	1338,82
66,00	1375,30
67,00	1354,59
68,00	1380,62
69,00	1368,60
70,00	1795,54
71,00	1412,84
72,00	1370,03
73,00	1365,06
74,00	1370,41
75,00	1351,83
76,00	1348,47
77,00	1403,50
78,00	1372,87
79,00	1383,05
80,00	1370,53
81,00	1329,45
82,00	1413,36
83,00	1326,64
84,00	1523,54
85,00	1412,66
86,00	1561,14
87,00	1520,06
88,00	1347,80
89,00	1337,00
90,00	1371,64
91,00	1483,46
92,00	1392,50
93,00	1431,33
94,00	1361,34
95,00	1356,28
96,00	1368,48
97,00	1721,23
98,00	1384,66
99,00	1362,10
100,00	1406,81
101,00	1440,98
102,00	1364,03
103,00	1371,76
104,00	1380,27
105,00	1451,48
106,00	1413,30
107,00	1426,56
108,00	1427,93
109,00	1385,07
110,00	1531,03
111,00	1450,31
112,00	1376,79
113,00	1432,41
114,00	1372,29
115,00	1377,58
116,00	1383,58
117,00	1364,71
118,00	1387,53
119,00	1553,59
120,00	1388,73
121,00	1362,05
122,00	1406,28
123,00	1356,28
124,00	1363,74
125,00	1360,99
126,00	1387,59
127,00	1424,27
128,00	1386,62
129,00	1425,59
130,00	1410,47
131,00	1448,70
132,00	1367,49
133,00	1461,96
134,00	1406,78
135,00	1378,40
136,00	1362,48
137,00	1442,74
138,00	1528,63
139,00	1424,54
140,00	1408,39
141,00	1472,43
142,00	1398,56
143,00	1361,87
144,00	1401,16
145,00	1379,01
146,00	1394,81
147,00	1494,17
148,00	1755,37
149,00	1465,47
150,00	1359,24
151,00	1432,20
152,00	1358,33
153,00	1370,85
154,00	1383,05
155,00	1362,28
156,00	1448,12
157,00	1381,62
158,00	1419,92
159,00	1461,46
160,00	1452,80
161,00	1485,95
162,00	1358,77
163,00	1383,14
164,00	1360,06
165,00	1354,59
166,00	1382,91
167,00	1430,80
168,00	1361,17
169,00	1368,10
170,00	1385,19
171,00	1342,30
172,00	1466,02
173,00	1348,91
174,00	1377,17
175,00	1397,01
176,00	1382,61
177,00	1385,16
178,00	1420,38
179,00	1371,58
180,00	1425,94
181,00	1374,86
182,00	1354,64
183,00	1557,60
184,00	1364,94
185,00	1358,83
186,00	1353,47
187,00	1388,52
188,00	1457,57
189,00	1383,29
190,00	1355,17
191,00	1364,77
192,00	1424,86
193,00	1363,30
194,00	1392,74
195,00	1432,67
196,00	1453,36
197,00	1424,10
198,00	1535,22
199,00	1377,61
200,00	1353,06
201,00	1445,69
202,00	1415,00
203,00	1407,95
204,00	1396,83
205,00	1422,99
206,00	1386,94
207,00	1392,06
208,00	1418,16
209,00	1407,45
210,00	1439,22
211,00	1444,23
212,00	1362,69
213,00	1408,21
214,00	1426,06
215,00	1404,67
216,00	1394,49
217,00	1404,23
218,00	1482,64
219,00	1386,71
220,00	1526,56
221,00	1418,60
222,00	1445,72
223,00	1402,01
224,00	1407,10
225,00	1351,16
226,00	1408,53
227,00	1366,84
228,00	1383,43
229,00	1410,38
230,00	1379,42
231,00	1437,62
232,00	1424,39
233,00	1397,83
234,00	1409,38
235,00	1411,34
236,00	1526,59
237,00	1411,87
238,00	1371,55
239,00	1363,04
240,00	1429,39
241,00	1440,04
242,00	1376,35
243,00	1452,13
244,00	1393,73
245,00	1365,18
246,00	1360,90
247,00	1403,50
248,00	1429,63
249,00	1465,00
250,00	1463,24
251,00	1395,84
252,00	1453,03
253,00	1415,00
254,00	1449,61
255,00	1367,19
256,00	1429,01
257,00	1413,71
258,00	1389,84
259,00	1395,46
260,00	1357,36
261,00	1394,78
262,00	1344,08
263,00	1373,57
264,00	1417,49
265,00	1402,21
266,00	1383,61
267,00	1388,93
268,00	1440,51
269,00	1410,76
270,00	1404,50
271,00	1455,96
272,00	1433,31
273,00	1430,71
274,00	1390,10
275,00	1402,95
276,00	1374,22
277,00	1419,65
278,00	1401,25
279,00	1431,30
280,00	1368,80
281,00	1401,98
282,00	1364,85
283,00	1421,29
284,00	1404,67
285,00	1407,77
286,00	1433,20
287,00	1403,30
288,00	1360,20
289,00	1386,27
290,00	1465,12
291,00	1376,79
292,00	1451,95
293,00	1390,86
294,00	1420,94
295,00	1415,59
296,00	1363,51
297,00	1371,76
298,00	1410,44
299,00	1409,79
300,00	1400,31
301,00	1422,20
302,00	1394,17
303,00	1441,86
304,00	1379,01
305,00	1440,95
306,00	1403,74
307,00	1373,84
308,00	1401,92
309,00	1408,80
310,00	1399,55
311,00	1369,94
312,00	1405,46
313,00	1486,24
314,00	1440,51
315,00	1376,97
316,00	1410,49
317,00	1364,21
318,00	1367,31
319,00	1415,61
320,00	1391,36
321,00	1374,66
322,00	1363,48
323,00	1466,43
324,00	1406,46
325,00	1451,60
326,00	1366,84
327,00	1405,55
328,00	1432,09
329,00	1442,09
330,00	1397,97
331,00	1386,83
332,00	1371,29
333,00	1434,43
334,00	1404,99
335,00	1412,81
336,00	1428,43
337,00	1396,07
338,00	1454,79
339,00	1365,56
340,00	1368,75
341,00	1378,14
342,00	1366,29
343,00	1477,49
344,00	1551,63
345,00	1383,99
346,00	1364,12
347,00	1431,09
348,00	1346,28
349,00	1496,48
350,00	1394,17
351,00	1363,01
352,00	1539,17
353,00	1410,70
354,00	1350,31
355,00	1386,88
356,00	1408,12
357,00	1465,44
358,00	1372,55
359,00	1376,18
360,00	1405,87
361,00	1396,10
362,00	1472,31
363,00	1422,46
364,00	1469,97
365,00	1387,67
366,00	1404,73
367,00	1373,46
368,00	1388,55
369,00	1381,56
370,00	1364,36
371,00	1363,89
372,00	1488,52
373,00	1384,16
374,00	1393,06
375,00	1402,24
376,00	1364,85
377,00	1865,11
378,00	1411,17
379,00	1372,05
380,00	1365,76
381,00	1533,81
382,00	1439,90
383,00	1382,53
384,00	1375,24
385,00	1358,56
386,00	1389,69
387,00	1399,73
388,00	1425,06
389,00	1483,52
390,00	1428,25
391,00	1407,80
392,00	1379,31
393,00	1408,83
394,00	1401,95
395,00	1395,13
396,00	1433,08
397,00	1377,93
398,00	1429,31
399,00	1381,68
400,00	1441,71
401,00	1375,30
402,00	1382,00
403,00	1384,60
404,00	1406,69
405,00	1431,09
406,00	1381,59
407,00	1437,50
408,00	1389,11
409,00	1465,29
410,00	1421,11
411,00	1391,19
412,00	1369,33
413,00	1365,56
414,00	1519,45
415,00	1433,08
416,00	1475,06
417,00	1392,44
418,00	1379,01
419,00	1395,54
420,00	1434,84
421,00	1393,91
422,00	1433,72
423,00	1373,54
424,00	1368,39
425,00	1367,37
426,00	1362,34
427,00	1383,26
428,00	1387,29
429,00	1366,17
430,00	1365,73
431,00	1385,39
432,00	1383,02
433,00	1360,14
434,00	1455,87
435,00	1434,46
436,00	1498,00
437,00	1413,60
438,00	1397,39
439,00	1385,51
440,00	1418,95
441,00	1395,57
442,00	1443,06
443,00	1382,35
444,00	1380,97
445,00	1385,48
446,00	1434,57
447,00	1390,78
448,00	1487,29
449,00	1395,16
450,00	1363,74
451,00	1506,84
452,00	1473,78
453,00	1388,58
454,00	1426,73
455,00	1383,78
456,00	1401,54
457,00	1649,38
458,00	1393,32
459,00	1381,03
460,00	1375,83
461,00	1362,07
462,00	1363,01
463,00	1387,91
464,00	1403,85
465,00	1366,79
466,00	1411,84
467,00	1405,08
468,00	1378,40
469,00	1421,90
470,00	1475,74
471,00	1411,49
472,00	1498,50
473,00	1370,24
474,00	1369,24
475,00	1424,19
476,00	1370,59
477,00	1369,07
478,00	1436,91
479,00	1411,49
480,00	1410,90
481,00	1350,90
482,00	1401,66
483,00	1483,78
484,00	1403,62
485,00	1476,23
486,00	1364,03
487,00	1395,19
488,00	1426,94
489,00	1374,71
490,00	1431,94
491,00	1435,45
492,00	1404,91
493,00	1376,53
494,00	1400,81
495,00	1485,30
496,00	1412,81
497,00	1370,00
498,00	1404,67
499,00	1353,06
500,00	1359,79
501,00	1372,34
502,00	1417,90
503,00	1398,21
504,00	1398,21
505,00	1424,48
506,00	1462,89
507,00	1486,50
508,00	1471,67
509,00	1358,51
510,00	1393,38
511,00	1436,01
512,00	1399,67
513,00	1462,02
514,00	1603,00
515,00	1389,93
516,00	1400,49
517,00	1383,58
518,00	1387,21
519,00	1481,65
520,00	1473,63
521,00	1352,04
522,00	1428,08
523,00	1542,21
524,00	1436,15
525,00	1372,96
526,00	1372,20
527,00	1398,73
528,00	1425,01
529,00	1423,46
530,00	1397,56
531,00	1399,82
532,00	1351,83
533,00	1428,98
534,00	1382,96
535,00	1422,61
536,00	1438,96
537,00	1426,26
538,00	1481,35
539,00	1424,07
540,00	1368,95
541,00	1453,82
542,00	1365,44
543,00	1421,93
544,00	1440,83
545,00	1399,35
546,00	1359,68
547,00	1458,10
548,00	1395,78
549,00	1363,07
550,00	1402,24
551,00	1405,05
552,00	1597,56
553,00	1455,43
554,00	1421,55
555,00	1459,68
556,00	1380,10
557,00	1421,58
558,00	1362,69
559,00	1386,24
560,00	1476,85
561,00	1484,13
562,00	1447,53
563,00	1391,77
564,00	1411,72
565,00	1434,60
566,00	1398,00
567,00	1426,44
568,00	1416,58
569,00	1394,29
570,00	1416,40
571,00	1408,71
572,00	1377,84
573,00	1396,01
574,00	1390,80
575,00	1431,06
576,00	1464,91
577,00	1417,43
578,00	1370,03
579,00	1362,54
580,00	1402,45
581,00	1424,51
582,00	1386,62
583,00	1382,26
584,00	1353,74
585,00	1451,60
586,00	1372,40
587,00	1395,46
588,00	1377,99
589,00	1391,62
590,00	1444,58
591,00	1366,81
592,00	1420,68
593,00	1414,94
594,00	1385,89
595,00	1405,14
596,00	1436,97
597,00	1416,52
598,00	1354,06
599,00	1413,95
600,00	1408,62
601,00	4104,57
602,00	1591,51
603,00	1421,00
604,00	1405,73
605,00	1415,44
606,00	1403,68
607,00	1395,57
608,00	1403,94
609,00	1416,93
610,00	1402,19
611,00	1358,15
612,00	1440,10
613,00	1379,72
614,00	1438,52
615,00	1402,65
616,00	1422,37
617,00	1472,05
618,00	1424,39
619,00	1363,68
620,00	1381,44
621,00	1410,26
622,00	1371,85
623,00	1407,54
624,00	1362,92
625,00	1546,36
626,00	1371,82
627,00	1458,33
628,00	1395,46
629,00	1430,24
630,00	1384,43
631,00	1371,96
632,00	1422,29
633,00	1377,52
634,00	1407,04
635,00	1475,56
636,00	1414,85
637,00	1394,43
638,00	1367,69
639,00	1395,22
640,00	1414,56
641,00	1400,17
642,00	1426,62
643,00	1397,30
644,00	1373,34
645,00	1402,33
646,00	1361,14
647,00	1371,23
648,00	1368,22
649,00	1400,37
650,00	1395,43
651,00	1393,12
652,00	1408,74
653,00	1387,06
654,00	1386,45
655,00	1374,80
656,00	1442,85
657,00	1399,49
658,00	1455,11
659,00	1429,13
660,00	1710,02
661,00	1467,60
662,00	1411,46
663,00	1423,05
664,00	1439,14
665,00	1392,85
666,00	1480,74
667,00	1381,79
668,00	1363,36
669,00	1446,60
670,00	1420,18
671,00	1409,15
672,00	1395,13
673,00	1451,86
674,00	1426,38
675,00	1380,45
676,00	1479,86
677,00	1399,76
678,00	1378,31
679,00	1403,85
680,00	1388,05
681,00	1377,93
682,00	1421,00
683,00	1388,87
684,00	1379,78
685,00	1407,77
686,00	1426,29
687,00	1467,87
688,00	1392,44
689,00	1543,20
690,00	1596,54
691,00	1540,39
692,00	1498,65
693,00	1454,50
694,00	1407,39
695,00	1489,55
696,00	1435,04
697,00	1394,20
698,00	1422,67
699,00	1665,91
700,00	1420,12
701,00	1475,85
702,00	1476,88
703,00	1398,82
704,00	1483,40
705,00	1413,01
706,00	1459,85
707,00	1416,23
708,00	1459,76
709,00	1399,44
710,00	1389,22
711,00	1446,22
712,00	1404,88
713,00	1405,49
714,00	1408,94
715,00	1395,31
716,00	1434,37
717,00	1418,63
718,00	1392,09
719,00	1381,03
720,00	1468,98
721,00	1446,10
722,00	1410,73
723,00	1581,44
724,00	1485,63
725,00	1464,03
726,00	1429,13
727,00	1399,67
728,00	1423,63
729,00	1556,25
730,00	1397,07
731,00	1431,65
732,00	1429,95
733,00	1391,30
734,00	1494,40
735,00	1425,27
736,00	1400,81
737,00	1392,74
738,00	1411,26
739,00	1424,27
740,00	1442,15
741,00	1493,96
742,00	1625,47
743,00	1475,77
744,00	1459,94
745,00	1427,79
746,00	1467,52
747,00	1470,94
748,00	1545,40
749,00	1570,15
750,00	1515,99
751,00	1576,09
752,00	1799,96
753,00	2146,89
754,00	2375,12
755,00	2799,37
756,00	3333,07
757,00	4477,01
758,00	6694,46
759,00	7211,89
760,00	5197,25
761,00	4796,11
762,00	3440,85
763,00	2613,68
764,00	2046,27
765,00	1842,91
766,00	1615,94
767,00	1576,91
768,00	1474,39
769,00	1448,26
770,00	1480,07
771,00	1447,12
772,00	1452,36
773,00	1469,71
774,00	1463,92
775,00	1484,51
776,00	1421,96
777,00	1430,42
778,00	1426,26
779,00	1417,52
780,00	1434,81
781,00	1397,12
782,00	1483,37
783,00	1428,34
784,00	1477,02
785,00	1546,04
786,00	1433,11
787,00	1434,16
788,00	1442,76
789,00	1437,41
790,00	1421,82
791,00	1424,42
792,00	1435,66
793,00	1436,80
794,00	1482,70
795,00	1516,96
796,00	1521,67
797,00	1534,84
798,00	1518,01
799,00	1458,48
800,00	1483,81
801,00	1496,51
802,00	1572,40
803,00	1485,89
804,00	1439,78
805,00	1412,89
806,00	1441,10
807,00	1402,16
808,00	1382,38
809,00	1389,99
810,00	1430,33
811,00	1390,83
812,00	1460,08
813,00	1417,63
814,00	1458,42
815,00	1424,30
816,00	1481,47
817,00	1455,78
818,00	1414,41
819,00	1463,39
820,00	1394,96
821,00	1488,46
822,00	1424,33
823,00	1408,77
824,00	1421,85
825,00	1435,71
826,00	1408,04
827,00	1505,70
828,00	1479,34
829,00	1637,97
830,00	1682,79
831,00	2163,42
832,00	2079,60
833,00	2165,26
834,00	2222,02
835,00	1838,14
836,00	1727,46
837,00	1609,38
838,00	1501,80
839,00	1470,30
840,00	1425,83
841,00	4333,30
842,00	1608,74
843,00	1524,77
844,00	1453,97
845,00	1512,51
846,00	1443,12
847,00	1405,58
848,00	1419,62
849,00	1420,32
850,00	1439,02
851,00	1392,53
852,00	1371,55
853,00	1449,84
854,00	1392,68
855,00	1389,34
856,00	1384,75
857,00	1448,59
858,00	1409,97
859,00	1480,71
860,00	1484,66
861,00	1418,77
862,00	1412,54
863,00	1405,87
864,00	1453,59
865,00	1411,69
866,00	1508,50
867,00	1484,75
868,00	1479,60
869,00	1660,81
870,00	1543,23
871,00	1657,13
872,00	1568,01
873,00	1478,14
874,00	1446,33
875,00	1465,67
876,00	1441,27
877,00	1376,50
878,00	1410,55
879,00	1454,09
880,00	1446,36
881,00	1380,24
882,00	1476,15
883,00	1404,44
884,00	1373,66
885,00	1422,52
886,00	1417,25
887,00	1437,12
888,00	1394,40
889,00	1399,64
890,00	1469,71
891,00	1518,57
892,00	1431,12
893,00	1382,96
894,00	1372,17
895,00	1395,43
896,00	1403,82
897,00	1379,16
898,00	1443,82
899,00	1395,43
900,00	1460,20
901,00	1411,37
902,00	1392,79
903,00	1450,90
904,00	1443,38
905,00	1484,02
906,00	1613,36
907,00	1793,79
908,00	1785,65
909,00	1772,72
910,00	1861,40
911,00	1691,36
912,00	1607,54
913,00	1535,27
914,00	1475,56
915,00	1458,59
916,00	1483,05
917,00	1403,21
918,00	1377,17
919,00	1378,05
920,00	1397,86
921,00	1409,38
922,00	1427,64
923,00	1444,75
924,00	1419,65
925,00	1407,13
926,00	1425,83
927,00	1415,15
928,00	1409,06
929,00	1417,78
930,00	1406,72
931,00	1455,84
932,00	1392,27
933,00	1488,23
934,00	1389,25
935,00	1467,28
936,00	1424,10
937,00	1388,26
938,00	1378,93
939,00	1487,38
940,00	1385,68
941,00	1378,96
942,00	1430,68
943,00	1418,63
944,00	1590,63
945,00	1480,80
946,00	1537,85
947,00	1673,01
948,00	1646,07
949,00	1694,28
950,00	1686,59
951,00	1558,80
952,00	1479,92
953,00	1430,65
954,00	1422,23
955,00	1460,44
956,00	1393,58
957,00	1373,37
958,00	1407,22
959,00	1431,68
960,00	1360,44
961,00	1455,67
962,00	1398,65
963,00	1436,65
964,00	1626,41
965,00	1413,68
966,00	1434,10
967,00	1452,68
968,00	1390,54
969,00	1547,36
970,00	1420,50
971,00	1458,36
972,00	1398,03
973,00	1442,12
974,00	1390,78
975,00	1404,03
976,00	1365,85
977,00	1439,81
978,00	1420,65
979,00	1393,88
980,00	1387,76
981,00	1429,04
982,00	1393,47
983,00	1384,40
984,00	1417,40
985,00	1442,09
986,00	1522,26
987,00	1660,46
988,00	1710,00
989,00	1584,54
990,00	1632,41
991,00	1547,01
992,00	1519,24
993,00	1442,74
994,00	1412,28
995,00	1437,73
996,00	1389,55
997,00	1454,17
998,00	1414,88
999,00	1521,55
1000,00	1368,98
1001,00	1425,39
1002,00	1380,83
1003,00	1370,97
1004,00	1470,41
1005,00	1371,44
1006,00	1391,48
1007,00	1422,34
1008,00	1392,68
1009,00	1386,24
1010,00	1390,89
1011,00	1379,92
1012,00	1457,69
1013,00	1377,11
1014,00	1385,07
1015,00	1419,80
1016,00	1417,19
1017,00	1371,41
1018,00	1447,71
1019,00	1445,81
1020,00	1408,89
1021,00	1397,01
1022,00	1420,21
1023,00	1398,82
1024,00	1460,55
1025,00	1398,21
1026,00	1448,21
1027,00	1487,59
1028,00	1675,79
1029,00	1654,79
1030,00	1588,81
1031,00	1687,94
1032,00	1616,34
1033,00	1583,49
1034,00	1484,78
1035,00	1515,15
1036,00	1462,54
1037,00	1455,75
1038,00	1416,87
1039,00	1382,38
1040,00	1402,27
1041,00	1395,90
1042,00	1458,18
1043,00	1434,25
1044,00	1719,68
1045,00	1449,67
1046,00	1383,96
1047,00	1378,63
1048,00	1430,65
1049,00	1412,72
1050,00	1420,79
1051,00	1414,44
1052,00	1425,18
1053,00	1428,17
1054,00	1372,49
1055,00	1446,77
1056,00	1456,60
1057,00	1396,10
1058,00	1398,35
1059,00	1433,14
1060,00	1398,79
1061,00	1412,78
1062,00	1381,00
1063,00	1359,44
1064,00	1462,83
1065,00	1398,00
1066,00	1374,60
1067,00	1440,42
1068,00	1431,12
1069,00	1468,13
1070,00	1487,26
1071,00	1550,96
1072,00	1492,27
1073,00	1483,96
1074,00	1485,45
1075,00	1570,41
1076,00	1429,89
1077,00	1420,18
1078,00	1423,95
1079,00	1384,51
1080,00	1522,28
1081,00	1463,77
1082,00	1396,07
1083,00	1444,90
1084,00	1409,12
1085,00	1457,16
1086,00	1375,04
1087,00	1446,83
1088,00	1441,01
1089,00	1390,48
1090,00	1397,30
1091,00	1456,72
1092,00	1472,26
1093,00	1561,69
1094,00	1435,48
1095,00	1407,63
1096,00	1405,81
1097,00	1435,89
1098,00	1363,16
1099,00	1459,50
1100,00	1400,64
1101,00	1410,23
1102,00	1406,90
1103,00	1469,27
1104,00	1460,76
1105,00	1514,56
1106,00	1417,63
1107,00	1435,92
1108,00	1426,85
1109,00	1393,32
1110,00	1396,39
1111,00	1543,79
1112,00	1504,00
1113,00	1497,18
1114,00	1604,55
1115,00	1615,23
1116,00	1652,54
1117,00	1685,68
1118,00	1642,09
1119,00	1570,65
1120,00	1562,48
1121,00	1719,56
1122,00	1464,30
1123,00	1421,90
1124,00	1476,03
1125,00	1375,85
1126,00	1415,06
1127,00	1420,12
1128,00	1581,38
1129,00	1395,28
1130,00	1376,76
1131,00	1445,90
1132,00	1415,82
1133,00	1429,69
1134,00	1515,64
1135,00	1449,99
1136,00	1483,46
1137,00	1443,06
1138,00	1402,83
1139,00	1415,38
1140,00	1398,06
1141,00	1385,01
1142,00	1383,20
1143,00	1414,44
1144,00	1468,28
1145,00	1515,73
1146,00	1420,38
1147,00	1448,91
1148,00	1388,99
1149,00	1385,77
1150,00	1405,43
1151,00	1456,57
1152,00	1439,72
1153,00	1405,96
1154,00	1446,98
1155,00	1408,68
1156,00	1457,54
1157,00	1440,75
1158,00	1471,85
1159,00	1419,62
1160,00	1407,31
1161,00	1465,29
1162,00	1478,25
1163,00	1417,52
1164,00	1384,46
1165,00	1490,37
1166,00	1495,66
1167,00	1409,59
1168,00	1430,80
1169,00	1394,02
1170,00	1401,40
1171,00	1490,37
1172,00	1397,30
1173,00	1420,56
1174,00	1410,87
1175,00	1387,53
1176,00	1388,90
1177,00	1447,01
1178,00	1529,63
1179,00	1459,27
1180,00	1410,03
1181,00	1431,24
1182,00	1412,57
1183,00	1437,50
1184,00	1389,46
1185,00	1415,79
1186,00	1442,79
1187,00	1431,41
1188,00	1453,44
1189,00	1376,12
1190,00	1401,22
1191,00	1444,02
1192,00	1484,69
1193,00	1404,73
1194,00	1403,18
1195,00	1436,59
1196,00	1470,06
1197,00	1382,00
1198,00	1476,09
1199,00	1461,64
1200,00	1431,27
1201,00	1396,80
1202,00	1457,42
1203,00	1483,72
1204,00	1520,12
1205,00	1663,59
1206,00	1569,15
1207,00	1663,45
1208,00	1718,54
1209,00	1552,51
1210,00	1505,73
1211,00	1509,91
1212,00	1450,34
1213,00	1411,23
1214,00	1387,32
1215,00	1435,48
1216,00	1373,81
1217,00	1436,94
1218,00	1407,31
1219,00	1395,25
1220,00	1401,22
1221,00	1486,18
1222,00	1459,18
1223,00	1388,90
1224,00	1405,99
1225,00	1388,46
1226,00	1387,56
1227,00	1423,92
1228,00	1391,04
1229,00	1406,93
1230,00	1393,73
1231,00	1397,12
1232,00	1377,43
1233,00	1389,66
1234,00	1414,94
1235,00	1380,59
1236,00	1443,53
1237,00	1411,23
1238,00	1413,04
1239,00	1409,62
1240,00	1355,87
1241,00	1440,51
1242,00	1400,66
1243,00	1456,46
1244,00	1373,75
1245,00	1401,34
1246,00	1421,96
1247,00	1477,14
1248,00	1451,45
1249,00	1446,63
1250,00	1417,02
1251,00	1439,22
1252,00	1419,07
1253,00	1467,11
1254,00	1401,28
1255,00	1436,18
1256,00	1408,77
1257,00	1422,81
1258,00	1382,70
1259,00	1362,16
1260,00	1437,91
1261,00	1413,98
1262,00	1399,20
1263,00	1402,48
1264,00	1422,46
1265,00	1387,09
1266,00	1538,35
1267,00	1404,88
1268,00	1384,11
1269,00	1401,60
1270,00	1452,39
1271,00	1395,49
1272,00	1405,35
1273,00	1433,70
1274,00	1404,97
1275,00	1387,70
1276,00	1533,14
1277,00	1921,35
1278,00	1501,57
1279,00	1431,12
1280,00	1410,47
1281,00	1390,95
1282,00	1389,46
1283,00	1383,29
1284,00	1387,62
1285,00	1554,70
1286,00	1389,08
1287,00	1423,25
1288,00	1421,03
1289,00	1548,56
1290,00	1417,72
1291,00	1386,12
1292,00	1428,96
1293,00	1395,31
1294,00	1370,71
1295,00	1401,22
1296,00	1493,38
1297,00	1426,44
1298,00	1459,53
1299,00	1471,14
1300,00	1598,88
1301,00	1614,74
1302,00	1657,83
1303,00	1599,64
1304,00	1688,93
1305,00	1554,23
1306,00	1492,41
1307,00	1468,95
1308,00	1468,57
1309,00	1411,81
1310,00	1405,55
1311,00	1413,07
1312,00	1397,27
1313,00	1393,82
1314,00	1414,65
1315,00	1500,96
1316,00	1372,93
1317,00	1375,30
1318,00	1418,22
1319,00	1427,38
1320,00	1407,98
1321,00	1440,51
1322,00	1834,48
1323,00	1394,90
1324,00	1386,47
1325,00	1387,44
1326,00	1380,07
1327,00	1361,46
1328,00	1426,44
1329,00	1377,84
1330,00	1410,82
1331,00	1428,69
1332,00	1380,39
1333,00	1398,62
1334,00	1378,40
1335,00	1439,02
1336,00	1440,63
1337,00	1453,47
1338,00	1416,46
1339,00	1373,75
1340,00	1406,02
1341,00	1443,70
1342,00	1418,16
1343,00	1500,52
1344,00	1438,93
1345,00	1367,52
1346,00	1389,37
1347,00	1412,92
1348,00	1410,87
1349,00	1365,12
1350,00	1537,70
1351,00	1506,05
1352,00	1436,36
1353,00	1422,69
1354,00	1640,98
1355,00	1390,31
1356,00	1360,38
1357,00	1372,34
1358,00	1421,88
1359,00	1448,79
1360,00	1398,29
1361,00	1370,09
1362,00	1386,47
1363,00	1405,70
1364,00	1437,85
1365,00	1484,28
1366,00	1383,46
1367,00	1372,55
1368,00	1398,27
1369,00	1383,70
1370,00	1434,81
1371,00	1386,07
1372,00	1364,91
1373,00	1501,01
1374,00	1393,91
1375,00	1411,99
1376,00	1427,52
1377,00	1439,20
1378,00	1474,01
1379,00	1427,11
1380,00	1601,25
1381,00	1393,70
1382,00	1377,73
1383,00	1514,50
1384,00	1400,87
1385,00	1443,35
1386,00	1472,02
1387,00	1482,79
1388,00	1402,89
1389,00	1454,82
1390,00	1376,26
1391,00	1390,66
1392,00	1502,98
1393,00	1436,68
1394,00	1404,91
1395,00	1393,61
1396,00	1471,20
1397,00	1395,25
1398,00	1615,26
1399,00	1798,15
1400,00	1560,20
1401,00	1583,28
1402,00	1841,30
1403,00	1550,69
1404,00	1513,10
1405,00	1504,44
1406,00	1474,77
1407,00	1441,27
1408,00	1441,21
1409,00	1421,73
1410,00	1385,77
1411,00	2831,81
1412,00	1492,27
1413,00	1372,61
1414,00	1365,91
1415,00	1380,89
1416,00	1357,69
1417,00	1368,42
1418,00	1421,85
1419,00	1438,05
1420,00	1378,87
1421,00	1373,16
1422,00	1356,14
1423,00	1351,95
1424,00	1409,62
1425,00	1360,49
1426,00	1420,32
1427,00	1409,62
1428,00	1349,61
1429,00	1401,04
1430,00	1357,63
1431,00	1368,77
1432,00	1422,20
1433,00	1383,29
1434,00	1436,65
1435,00	1423,07
1436,00	1393,17
1437,00	1470,09
1438,00	1387,12
1439,00	1392,18
1440,00	1388,90
1441,00	1380,62
1442,00	1377,58
1443,00	1360,17
1444,00	1382,53
1445,00	1367,52
1446,00	1432,73
1447,00	1402,10
1448,00	1433,08
1449,00	1402,42
1450,00	1402,65
1451,00	1387,44
1452,00	1490,01
1453,00	1413,77
1454,00	1486,21
1455,00	1475,59
1456,00	1408,53
1457,00	1504,12
1458,00	1463,62
1459,00	1399,58
1460,00	1385,25
1461,00	1418,48
1462,00	1395,90
1463,00	1425,77
1464,00	1391,54
1465,00	1398,32
1466,00	1371,67
1467,00	1436,39
1468,00	1385,48
1469,00	1375,83
1470,00	1397,33
1471,00	1434,63
1472,00	1399,00
1473,00	1372,46
1474,00	1400,40
1475,00	1378,02
1476,00	1532,47
1477,00	1439,05
1478,00	1732,26
1479,00	1517,11
1480,00	1414,74
1481,00	1386,56
1482,00	1398,38
1483,00	1386,42
1484,00	1462,13
1485,00	1450,52
1486,00	1390,48
1487,00	1439,11
1488,00	1444,64
1489,00	1417,81
1490,00	1435,30
1491,00	1423,60
1492,00	1394,02
1493,00	1372,31
1494,00	1370,59
1495,00	1432,88
1496,00	1386,77
1497,00	1482,50
1498,00	1458,10
1499,00	1436,06
1500,00	1420,76
1501,00	1414,39
1502,00	1382,44
1503,00	1518,83
1504,00	1397,48
1505,00	1475,65
1506,00	1409,27
1507,00	1406,93
1508,00	1466,99
1509,00	1432,91
1510,00	1419,53
1511,00	1501,89
1512,00	1439,02
1513,00	1425,42
1514,00	1423,10
1515,00	1425,80
1516,00	1810,96
1517,00	1509,38
1518,00	1410,64
1519,00	1407,54
1520,00	1437,91
1521,00	1378,99
1522,00	1420,88
1523,00	1401,13
1524,00	1389,96
1525,00	1366,38
1526,00	1379,60
1527,00	1366,05
1528,00	1418,74
1529,00	1351,95
1530,00	1365,88
1531,00	1380,56
1532,00	1373,87
1533,00	1349,00
1534,00	1399,67
1535,00	1358,97
1536,00	1411,40
1537,00	1443,93
1538,00	1433,96
1539,00	1439,22
1540,00	1420,38
1541,00	1416,23
1542,00	1372,64
1543,00	1389,40
1544,00	1435,01
1545,00	1406,95
1546,00	1389,84
1547,00	1412,78
1548,00	1387,44
1549,00	1381,53
1550,00	1381,15
1551,00	1399,03
1552,00	1385,95
1553,00	1365,91
1554,00	1371,09
1555,00	1367,17
1556,00	1383,55
1557,00	1430,86
1558,00	1401,28
1559,00	1387,85
1560,00	1399,03
1561,00	1397,33
1562,00	1487,03
1563,00	1436,27
1564,00	1400,69
1565,00	1438,49
1566,00	1456,81
1567,00	1477,11
1568,00	1439,99
1569,00	1425,59
1570,00	1417,02
1571,00	1425,09
1572,00	1449,00
1573,00	1414,36
1574,00	1484,08
1575,00	1381,91
1576,00	1352,04
1577,00	1372,46
1578,00	1438,20
1579,00	1387,94
1580,00	1375,42
1581,00	1384,66
1582,00	1363,16
1583,00	1490,31
1584,00	1412,37
1585,00	1362,75
1586,00	1401,37
1587,00	1415,20
1588,00	1451,54
1589,00	1384,72
1590,00	1419,51
1591,00	1397,21
1592,00	1498,76
1593,00	1372,43
1594,00	1401,89
1595,00	1361,46
1596,00	1380,48
1597,00	1376,03
1598,00	1381,00
1599,00	1394,73
1600,00	1345,87
1601,00	1423,10
1602,00	1454,35
1603,00	1417,31
1604,00	1386,01
1605,00	1486,74
1606,00	1374,95
1607,00	1383,49
1608,00	1382,47
1609,00	1386,50
1610,00	1358,01
1611,00	1457,31
1612,00	1376,35
1613,00	1415,91
1614,00	1363,98
1615,00	1380,45
1616,00	1431,35
1617,00	1414,85
1618,00	1434,10
1619,00	1406,28
1620,00	1465,97
1621,00	1447,15
1622,00	1417,98
1623,00	1489,52
1624,00	1463,83
1625,00	1426,03
1626,00	1527,81
1627,00	1410,44
1628,00	1407,36
1629,00	1814,71
1630,00	1436,33
1631,00	1381,94
1632,00	1426,76
1633,00	1391,39
1634,00	1407,83
1635,00	1384,95
1636,00	1390,92
1637,00	1389,66
1638,00	1363,19
1639,00	1363,60
1640,00	1418,22
1641,00	1458,62
1642,00	1461,17
1643,00	1377,29
1644,00	1519,59
1645,00	1430,80
1646,00	1387,67
1647,00	1441,65
1648,00	1401,60
1649,00	1391,95
1650,00	1524,92
1651,00	1457,54
1652,00	1374,86
1653,00	1383,93
1654,00	1403,97
1655,00	1397,10
1656,00	1379,25
1657,00	1476,91
1658,00	1377,32
1659,00	1432,23
1660,00	1427,84
1661,00	1450,25
1662,00	1402,62
1663,00	1435,16
1664,00	1418,95
1665,00	1374,60
1666,00	1415,70
1667,00	1502,30
1668,00	1370,50
1669,00	1375,15
1670,00	1425,62
1671,00	1376,44
1672,00	1357,60
1673,00	1430,04
1674,00	1423,95
1675,00	1427,17
1676,00	1411,23
1677,00	1415,85
1678,00	1440,95
1679,00	1443,20
1680,00	1457,77
1681,00	1465,15
1682,00	1590,25
1683,00	1473,69
1684,00	1489,93
1685,00	1460,87
1686,00	1385,19
1687,00	1387,70
1688,00	1453,00
1689,00	1370,59
1690,00	1379,66
1691,00	1366,93
1692,00	1378,75
1693,00	1477,20
1694,00	1370,91
1695,00	1398,67
1696,00	1402,19
1697,00	1403,00
1698,00	1398,24
1699,00	1408,86
1700,00	1406,37
1701,00	1451,78
1702,00	1371,76
1703,00	1364,09
1704,00	1376,26
1705,00	1416,67
1706,00	1372,75
1707,00	1378,49
1708,00	1372,69
1709,00	1431,91
1710,00	1395,81
1711,00	1365,85
1712,00	1385,22
1713,00	1501,42
1714,00	1427,35
1715,00	1395,16
1716,00	1472,96
1717,00	1394,93
1718,00	1485,42
1719,00	1459,21
1720,00	1380,13
1721,00	1412,43
1722,00	1376,85
1723,00	1441,27
1724,00	1392,41
1725,00	1406,40
1726,00	1413,57
1727,00	1377,87
1728,00	1472,61
1729,00	1373,34
1730,00	1509,29
1731,00	1422,17
1732,00	1524,27
1733,00	1420,65
1734,00	1360,58
1735,00	1394,37
1736,00	1375,24
1737,00	1368,48
1738,00	1391,51
1739,00	1449,00
1740,00	1434,02
1741,00	1533,75
1742,00	1422,26
1743,00	1387,62
1744,00	1381,94
1745,00	1380,62
1746,00	1393,44
1747,00	1408,36
1748,00	1431,79
1749,00	1496,57
1750,00	1447,42
1751,00	1544,70
1752,00	1389,99
1753,00	1374,30
1754,00	1388,11
1755,00	1413,57
1756,00	1393,50
1757,00	1475,97
1758,00	1377,79
1759,00	1370,27
1760,00	1373,16
1761,00	1424,13
1762,00	1412,02
1763,00	1369,36
1764,00	1426,47
1765,00	1373,22
1766,00	1375,01
1767,00	1371,79
1768,00	1377,76
1769,00	1413,10
1770,00	1372,40
1771,00	1390,19
1772,00	1506,92
1773,00	1373,22
1774,00	1348,76
1775,00	1385,60
1776,00	1395,31
1777,00	1348,65
1778,00	1368,19
1779,00	1368,86
1780,00	1366,76
1781,00	1358,39
1782,00	1369,13
1783,00	1413,30
1784,00	1406,08
1785,00	1400,31
1786,00	1423,63
1787,00	1380,74
1788,00	1407,69
1789,00	1421,14
1790,00	1459,59
1791,00	1372,58
1792,00	1411,96
1793,00	1381,00
1794,00	1368,95
1795,00	1378,14
1796,00	1366,96
1797,00	1348,79
1798,00	1389,08
1799,00	1369,48
1800,00	1445,46
1801,00	1412,48
1802,00	1484,54
1803,00	1417,46
1804,00	1455,29
1805,00	1432,29
1806,00	1456,19
1807,00	1430,45
1808,00	1396,69
1809,00	1424,92
1810,00	1451,98
1811,00	1416,70
1812,00	1380,36
1813,00	1392,47
1814,00	1404,44
1815,00	1434,81
1816,00	1559,62
1817,00	1396,25
1818,00	1722,99
1819,00	1480,36
1820,00	1444,61
1821,00	1379,69
1822,00	1362,43
1823,00	1375,74
1824,00	1398,59
1825,00	1494,14
1826,00	1377,55
1827,00	1488,64
1828,00	1528,28
1829,00	1408,33
1830,00	1443,55
1831,00	1371,93
1832,00	1349,67
1833,00	1354,79
1834,00	1373,16
1835,00	1397,50
1836,00	1347,59
1837,00	1361,64
1838,00	1407,25
1839,00	1479,36
1840,00	1542,85
1841,00	1421,44
1842,00	1424,51
1843,00	1434,49
1844,00	1512,72
1845,00	1433,23
1846,00	1367,93
1847,00	1376,03
1848,00	1413,10
1849,00	1392,97
1850,00	1408,59
1851,00	1432,03
1852,00	1372,31
1853,00	1374,07
1854,00	1372,90
1855,00	1370,79
1856,00	1361,02
1857,00	1384,78
1858,00	1497,42
1859,00	1362,31
1860,00	1408,97
1861,00	1643,88
1862,00	1370,82
1863,00	1390,66
1864,00	1366,61
1865,00	1395,92
1866,00	1438,11
1867,00	1370,76
1868,00	1406,60
1869,00	1367,49
1870,00	1391,68
1871,00	1362,92
1872,00	1406,16
1873,00	1396,16
1874,00	1421,50
1875,00	1391,92
1876,00	1366,64
1877,00	1401,69
1878,00	1468,51
1879,00	1443,26
1880,00	1358,13
1881,00	1408,51
1882,00	1388,64
1883,00	1379,95
1884,00	1370,85
1885,00	1411,17
1886,00	1410,76
1887,00	1358,36
1888,00	1374,10
1889,00	1408,27
1890,00	1356,49
1891,00	1425,12
1892,00	1462,34
1893,00	1380,39
1894,00	1434,34
1895,00	1412,28
1896,00	1444,43
1897,00	1551,28
1898,00	1387,41
1899,00	1401,83
1900,00	1385,63
1901,00	1410,14
1902,00	1393,47
1903,00	1488,84
1904,00	1409,30
1905,00	1662,19
1906,00	1384,95
1907,00	1371,61
1908,00	1657,33
1909,00	1387,85
1910,00	1379,04
1911,00	1403,06
1912,00	1414,53
1913,00	1487,64
1914,00	1386,68
1915,00	1387,97
1916,00	1420,03
1917,00	1404,76
1918,00	1402,62
1919,00	1405,02
1920,00	1366,17
1921,00	1457,63
1922,00	1391,57
1923,00	1404,99
1924,00	1417,66
1925,00	1371,79
1926,00	1397,50
1927,00	1439,43
1928,00	1466,76
1929,00	1424,60
1930,00	1380,80
1931,00	1429,86
1932,00	1546,27
1933,00	1415,88
1934,00	1375,80
1935,00	1387,88
1936,00	1412,28
1937,00	1378,43
1938,00	1414,77
1939,00	1400,31
1940,00	1535,51
1941,00	1384,46
1942,00	1394,34
1943,00	1386,15
1944,00	1408,24
1945,00	1379,86
1946,00	1350,34
1947,00	1362,86
1948,00	1522,99
1949,00	1364,88
1950,00	1423,40
1951,00	1371,79
1952,00	1384,66
1953,00	1355,14
1954,00	1429,39
1955,00	1386,59
1956,00	1383,96
1957,00	1413,86
1958,00	1358,71
1959,00	1387,79
1960,00	1362,81
1961,00	1437,50
1962,00	1354,56
1963,00	1422,72
1964,00	1370,33
1965,00	1412,31
1966,00	1376,64
1967,00	1446,66
1968,00	1367,66
1969,00	1354,79
1970,00	1399,90
1971,00	1437,26
1972,00	1390,48
1973,00	1422,29
1974,00	1411,58
1975,00	1426,12
1976,00	1410,76
1977,00	1397,07
1978,00	1393,76
1979,00	1407,36
1980,00	1678,08
1981,00	1402,57
1982,00	1369,86
1983,00	1389,28
1984,00	1407,31
1985,00	1484,98
1986,00	1362,66
1987,00	1359,30
1988,00	1380,21
1989,00	1392,65
1990,00	1487,21
1991,00	1419,24
1992,00	1435,83
1993,00	1568,01
1994,00	1420,50
1995,00	1367,52
1996,00	1412,98
1997,00	1388,96
1998,00	1413,86
1999,00	1347,86
2000,00	1344,23
2001,00	1380,68
2002,00	1472,11
2003,00	1352,51
2004,00	1417,11
2005,00	1359,12
2006,00	1494,05
2007,00	1383,43
2008,00	1357,60
2009,00	1477,73
2010,00	1367,02
2011,00	1345,43
2012,00	1382,20
2013,00	1376,32
2014,00	1388,05
2015,00	1377,67
2016,00	1360,49
2017,00	1382,35
2018,00	1392,36
2019,00	1356,57
2020,00	1358,59
2021,00	1414,41
2022,00	1395,46
2023,00	1384,69
2024,00	1377,17
2025,00	1461,81
2026,00	1381,71
2027,00	1364,27
2028,00	1414,74
2029,00	1371,12
2030,00	1359,59
2031,00	1368,80
2032,00	1352,74
2033,00	1390,80
2034,00	1467,93
2035,00	1405,81
2036,00	1393,41
2037,00	1379,51
2038,00	1385,28
2039,00	1386,68
2040,00	1416,08
2041,00	1399,58
2042,00	1360,38
2043,00	1387,82
2044,00	1420,68
2045,00	1359,47
2046,00	1359,47
2047,00	1359,47
>>>>>End Processed Spectral Data<<<<<
