SpectraSuite Datei
++++++++++++++++++++++++++++++++++++
Datum: Wed Sep 18 17:28:32 CEST 2024
Benutzer: Student
Dark-Spektrum vorhanden: Nein
Referenz-Spektrum vorhanden: Nein
Zahl der probierten Teilspektren: 1
Spektrometer: USB2+H15728
Integrationszeit (usec): 6000 (USB2+H15728)
Spektren Durchschnitt berechnet: 500 (USB2+H15728)
Boxcar Glättung: 0 (USB2+H15728)
Dunkelstromkorrektur: Nein (USB2+H15728)
Puls/Lampe aktiviert: Nein (USB2+H15728)
Correct for Detector Non-linearity: Nein (USB2+H15728)
Streulichtkorrektur: Nein (USB2+H15728)
Anzahl Pixel in verarbeitetem Spektrum: 2048
>>>>>Begin Processed Spectral Data<<<<<
395,19	991,24
395,38	991,24
395,57	991,24
395,76	960,53
395,95	961,06
396,14	961,64
396,33	965,21
396,52	974,28
396,70	984,01
396,89	996,70
397,08	1007,03
397,27	1022,27
397,46	1038,02
397,65	1052,88
397,84	1072,25
398,03	1086,53
398,22	1102,95
398,41	1122,97
398,60	1137,65
398,78	1155,38
398,97	1167,74
399,16	1183,95
399,35	1200,81
399,54	1385,38
399,73	1843,82
399,92	1899,19
400,11	1921,21
400,30	1947,90
400,48	1951,23
400,67	1970,54
400,86	1979,47
401,05	2008,41
401,24	2014,65
401,43	2029,97
401,62	2016,74
401,81	2060,36
401,99	2050,02
402,18	2068,65
402,37	2068,14
402,56	2081,51
402,75	2080,28
402,94	2089,61
403,12	2097,52
403,31	2105,14
403,50	2113,32
403,69	2111,34
403,88	2130,68
404,07	2133,85
404,26	2136,27
404,44	2130,11
404,63	2151,39
404,82	2142,18
405,01	2158,23
405,20	2161,33
405,39	2160,47
405,57	2179,15
405,76	2172,18
405,95	2177,06
406,14	2183,02
406,33	2199,16
406,51	2192,08
406,70	2192,81
406,89	2225,80
407,08	2221,96
407,27	2205,44
407,45	2229,41
407,64	2242,70
407,83	2244,61
408,02	2253,39
408,21	2256,71
408,39	2269,44
408,58	2282,70
408,77	2290,49
408,96	2286,28
409,15	2303,39
409,33	2300,19
409,52	2318,12
409,71	2322,40
409,90	2331,24
410,08	2333,92
410,27	2340,76
410,46	2362,49
410,65	2363,11
410,84	2375,15
411,02	2393,26
411,21	2390,75
411,40	2420,45
411,59	2415,68
411,77	2423,47
411,96	2438,42
412,15	2438,96
412,34	2463,87
412,52	2470,55
412,71	2486,27
412,90	2500,71
413,09	2505,70
413,27	2500,77
413,46	2523,35
413,65	2532,89
413,84	2536,38
414,02	2547,29
414,21	2566,29
414,40	2584,62
414,58	2589,17
414,77	2612,24
414,96	2595,47
415,15	2629,25
415,33	2634,68
415,52	2645,16
415,71	2641,31
415,89	2669,38
416,08	2687,32
416,27	2684,34
416,46	2707,93
416,64	2713,52
416,83	2737,73
417,02	2733,20
417,20	2756,52
417,39	2787,92
417,58	2765,02
417,76	2783,65
417,95	2821,03
418,14	2801,51
418,32	2810,38
418,51	2840,86
418,70	2849,73
418,88	2870,50
419,07	2894,05
419,26	2870,67
419,44	2915,90
419,63	2893,01
419,82	2910,23
420,00	2930,68
420,19	2954,86
420,38	2946,00
420,56	2949,64
420,75	2985,01
420,94	3002,88
421,12	3010,20
421,31	3023,55
421,50	3027,59
421,68	3062,68
421,87	3038,56
422,06	3057,76
422,24	3062,46
422,43	3060,78
422,62	3113,12
422,80	3113,20
422,99	3078,51
423,17	3157,95
423,36	3145,51
423,55	3171,82
423,73	3148,03
423,92	3137,05
424,10	3185,67
424,29	3179,32
424,48	3151,55
424,66	3204,04
424,85	3194,38
425,04	3237,61
425,22	3237,08
425,41	3243,02
425,59	3228,90
425,78	3241,94
425,97	3295,17
426,15	3253,53
426,34	3295,93
426,52	3286,72
426,71	3305,35
426,89	3307,23
427,08	3321,05
427,27	3321,33
427,45	3326,30
427,64	3348,57
427,82	3377,61
428,01	3375,75
428,19	3401,69
428,38	3388,57
428,57	3396,28
428,75	3407,14
428,94	3400,46
429,12	3435,38
429,31	3446,31
429,49	3442,39
429,68	3451,88
429,86	3450,65
430,05	3492,94
430,24	3482,69
430,42	3508,31
430,61	3506,54
430,79	3525,48
430,98	3517,09
431,16	3561,20
431,35	3581,92
431,53	3582,91
431,72	3572,49
431,90	3595,66
432,09	3621,45
432,27	3620,06
432,46	3627,37
432,64	3646,29
432,83	3704,14
433,01	3685,64
433,20	3665,00
433,38	3709,46
433,57	3739,16
433,75	3734,31
433,94	3767,77
434,12	3776,32
434,31	3784,68
434,49	3814,68
434,68	3824,55
434,86	3837,98
435,05	3836,29
435,23	3863,73
435,42	3874,52
435,60	3883,93
435,79	3922,43
435,97	3916,44
436,16	3934,38
436,34	3969,83
436,53	3977,23
436,71	3994,92
436,90	4008,98
437,08	4043,02
437,27	4058,95
437,45	4085,74
437,63	4070,50
437,82	4128,34
438,00	4097,96
438,19	4125,51
438,37	4143,97
438,56	4174,19
438,74	4189,44
438,93	4198,32
439,11	4231,45
439,29	4243,33
439,48	4258,90
439,66	4295,22
439,85	4302,94
440,03	4335,31
440,22	4313,83
440,40	4371,01
440,58	4357,51
440,77	4409,34
440,95	4400,83
441,14	4426,26
441,32	4455,43
441,50	4439,44
441,69	4505,06
441,87	4487,00
442,06	4504,74
442,24	4507,90
442,42	4528,02
442,61	4605,19
442,79	4567,71
442,98	4638,41
443,16	4657,08
443,34	4665,05
443,53	4658,31
443,71	4689,64
443,89	4666,53
444,08	4682,99
444,26	4769,82
444,45	4753,84
444,63	4736,30
444,81	4793,87
445,00	4773,10
445,18	4834,27
445,36	4853,42
445,55	4802,04
445,73	4850,10
445,91	4860,64
446,10	4909,40
446,28	4929,20
446,46	4901,09
446,65	4904,35
446,83	4953,40
447,01	4907,36
447,20	4966,42
447,38	5038,13
447,56	4995,65
447,75	5046,90
447,93	5043,22
448,11	5075,45
448,30	5132,90
448,48	5091,52
448,66	5107,84
448,85	5139,48
449,03	5116,53
449,21	5111,58
449,40	5148,42
449,58	5220,78
449,76	5121,93
449,95	5159,54
450,13	5140,76
450,31	5210,85
450,49	5134,39
450,68	5260,74
450,86	5200,88
451,04	5264,04
451,23	5248,47
451,41	5261,52
451,59	5344,43
451,77	5261,59
451,96	5311,86
452,14	5312,04
452,32	5326,75
452,50	5379,86
452,69	5353,31
452,87	5318,46
453,05	5324,10
453,23	5395,19
453,42	5372,09
453,60	5401,47
453,78	5479,78
453,96	5444,33
454,15	5448,16
454,33	5487,81
454,51	5421,89
454,69	5494,14
454,88	5518,32
455,06	5492,23
455,24	5545,08
455,42	5501,64
455,61	5488,54
455,79	5540,07
455,97	5547,77
456,15	5597,46
456,33	5638,30
456,52	5611,48
456,70	5608,77
456,88	5605,90
457,06	5615,82
457,24	5649,76
457,43	5701,73
457,61	5703,46
457,79	5718,00
457,97	5785,98
458,15	5758,99
458,34	5771,69
458,52	5822,39
458,70	5813,77
458,88	5836,87
459,06	5824,77
459,25	5894,80
459,43	5872,43
459,61	5918,72
459,79	5907,24
459,97	5969,54
460,15	5962,33
460,34	6063,57
460,52	6046,56
460,70	6031,05
460,88	6085,10
461,06	6098,51
461,24	6147,34
461,42	6157,83
461,61	6202,39
461,79	6178,77
461,97	6241,81
462,15	6285,82
462,33	6314,02
462,51	6274,99
462,69	6380,13
462,88	6430,61
463,06	6409,31
463,24	6437,47
463,42	6529,97
463,60	6526,17
463,78	6528,44
463,96	6604,83
464,14	6609,88
464,32	6685,66
464,51	6690,60
464,69	6719,00
464,87	6777,09
465,05	6801,13
465,23	6841,21
465,41	6831,18
465,59	6894,61
465,77	6961,79
465,95	6972,31
466,13	7013,63
466,31	6968,62
466,50	7065,72
466,68	7103,37
466,86	7095,05
467,04	7084,00
467,22	7112,58
467,40	7116,64
467,58	7124,72
467,76	7175,90
467,94	7168,27
468,12	7151,55
468,30	7229,33
468,48	7242,24
468,66	7262,84
468,84	7243,95
469,02	7320,40
469,20	7332,11
469,38	7341,54
469,57	7373,77
469,75	7443,64
469,93	7454,20
470,11	7485,94
470,29	7532,42
470,47	7519,50
470,65	7582,44
470,83	7585,40
471,01	7629,07
471,19	7651,31
471,37	7733,27
471,55	7708,99
471,73	7774,26
471,91	7803,85
472,09	7856,55
472,27	7891,48
472,45	7936,86
472,63	7955,15
472,81	7981,84
472,99	7996,28
473,17	8111,25
473,35	8153,75
473,53	8145,72
473,71	8204,75
473,89	8277,30
474,07	8262,43
474,25	8350,76
474,43	8390,10
474,60	8430,83
474,78	8463,59
474,96	8437,41
475,14	8569,60
475,32	8590,95
475,50	8626,17
475,68	8654,24
475,86	8732,59
476,04	8754,22
476,22	8819,73
476,40	8865,15
476,58	8929,13
476,76	8952,51
476,94	9034,81
477,12	9029,67
477,30	9089,63
477,48	9154,42
477,65	9181,50
477,83	9253,91
478,01	9301,44
478,19	9337,57
478,37	9335,35
478,55	9439,93
478,73	9489,38
478,91	9529,02
479,09	9534,00
479,27	9563,89
479,45	9564,59
479,62	9628,08
479,80	9662,83
479,98	9808,83
480,16	9819,97
480,34	9985,98
480,52	9985,53
480,70	10015,27
480,88	10107,14
481,06	10112,53
481,23	10160,72
481,41	10218,02
481,59	10284,65
481,77	10313,36
481,95	10356,70
482,13	10388,20
482,31	10474,32
482,48	10519,49
482,66	10561,58
482,84	10637,26
483,02	10672,51
483,20	10677,71
483,38	10751,64
483,55	10839,19
483,73	10920,60
483,91	10898,20
484,09	10968,54
484,27	11009,56
484,45	11018,79
484,62	11111,46
484,80	11143,47
484,98	11193,28
485,16	11236,28
485,34	11254,50
485,51	11327,28
485,69	11342,73
485,87	11428,94
486,05	11464,10
486,23	11521,93
486,40	11555,54
486,58	11638,61
486,76	11704,29
486,94	11748,87
487,12	11780,43
487,29	11795,02
487,47	11902,61
487,65	11952,97
487,83	11997,17
488,01	12058,86
488,18	12063,16
488,36	12183,28
488,54	12190,74
488,72	12230,08
488,89	12214,23
489,07	12359,85
489,25	12407,47
489,43	12416,79
489,60	12473,54
489,78	12528,53
489,96	12619,41
490,14	12587,21
490,31	12719,73
490,49	12753,97
490,67	12755,92
490,84	12805,26
491,02	12975,03
491,20	12995,59
491,38	13032,87
491,55	13087,08
491,73	13207,00
491,91	13152,17
492,09	13140,42
492,26	13269,87
492,44	13379,92
492,62	13496,87
492,79	13539,40
492,97	13571,92
493,15	13568,52
493,32	13537,03
493,50	13698,73
493,68	13703,64
493,85	13790,76
494,03	13836,83
494,21	13887,57
494,39	13970,84
494,56	14058,24
494,74	14136,40
494,92	14170,93
495,09	14164,74
495,27	14249,25
495,45	14407,03
495,62	14399,95
495,80	14480,51
495,97	14478,74
496,15	14558,73
496,33	14587,75
496,50	14594,07
496,68	14688,52
496,86	14883,42
497,03	14878,03
497,21	14908,50
497,39	14911,57
497,56	15095,58
497,74	15231,36
497,91	15222,76
498,09	15301,82
498,27	15352,75
498,44	15271,04
498,62	15381,99
498,80	15448,14
498,97	15489,97
499,15	15550,76
499,32	15687,99
499,50	15632,03
499,68	15660,30
499,85	15827,51
500,03	15912,22
500,20	16038,80
500,38	15966,57
500,55	16071,73
500,73	16016,24
500,91	16191,88
501,08	16259,44
501,26	16301,93
501,43	16348,37
501,61	16308,07
501,78	16546,15
501,96	16563,84
502,14	16681,90
502,31	16732,50
502,49	16675,46
502,66	16774,15
502,84	16811,25
503,01	17034,70
503,19	16910,38
503,36	17009,49
503,54	17047,52
503,71	17080,36
503,89	17316,80
504,06	17221,91
504,24	17464,99
504,42	17439,45
504,59	17507,42
504,77	17479,51
504,94	17528,15
505,12	17561,85
505,29	17693,09
505,47	17764,34
505,64	17845,44
505,82	17918,89
505,99	17883,59
506,17	18081,93
506,34	18053,31
506,52	18085,41
506,69	18272,83
506,87	18300,01
507,04	18304,51
507,21	18366,93
507,39	18581,42
507,56	18531,90
507,74	18622,79
507,91	18630,30
508,09	18816,99
508,26	18727,73
508,44	18777,46
508,61	19084,14
508,79	18943,61
508,96	19128,37
509,14	19121,97
509,31	19137,69
509,48	19351,60
509,66	19259,05
509,83	19470,31
510,01	19331,14
510,18	19619,27
510,36	19541,07
510,53	19602,08
510,70	19719,59
510,88	19718,37
511,05	19799,88
511,23	19902,20
511,40	19981,92
511,57	20029,44
511,75	20181,73
511,92	20132,59
512,10	20184,30
512,27	20256,27
512,44	20344,82
512,62	20393,76
512,79	20472,96
512,97	20536,88
513,14	20607,38
513,31	20688,65
513,49	20687,12
513,66	20784,33
513,83	20836,28
514,01	20898,08
514,18	20895,11
514,36	21027,29
514,53	21187,98
514,70	21124,10
514,88	21192,83
515,05	21232,08
515,22	21284,30
515,40	21279,20
515,57	21437,26
515,74	21435,93
515,92	21618,10
516,09	21642,17
516,26	21639,25
516,44	21652,86
516,61	21678,75
516,78	21500,67
516,96	21368,65
517,13	21458,35
517,30	21426,86
517,48	21495,03
517,65	21816,40
517,82	21980,51
517,99	22122,02
518,17	22230,51
518,34	22133,42
518,51	22278,14
518,69	22330,85
518,86	22384,83
519,03	22356,36
519,20	22447,70
519,38	22468,38
519,55	22520,22
519,72	22498,76
519,90	22484,69
520,07	22444,84
520,24	22594,13
520,41	22723,40
520,59	22630,56
520,76	22669,67
520,93	22714,92
521,10	22691,48
521,28	22780,49
521,45	22773,31
521,62	22870,85
521,79	22944,53
521,97	22879,24
522,14	22974,38
522,31	23015,27
522,48	23035,69
522,65	23093,16
522,83	23074,34
523,00	23043,87
523,17	23127,99
523,34	23110,35
523,52	23159,24
523,69	23212,66
523,86	23196,45
524,03	23255,21
524,20	23254,99
524,38	23246,65
524,55	23330,55
524,72	23305,87
524,89	23236,73
525,06	23404,45
525,23	23394,05
525,41	23443,90
525,58	23417,31
525,75	23456,67
525,92	23504,02
526,09	23405,61
526,26	23515,54
526,44	23500,61
526,61	23582,23
526,78	23626,52
526,95	23530,74
527,12	23771,97
527,29	23505,10
527,47	23588,36
527,64	23682,04
527,81	23654,14
527,98	23501,31
528,15	23797,96
528,32	23772,82
528,49	23729,64
528,66	23760,44
528,84	23629,44
529,01	23759,36
529,18	23767,00
529,35	23782,26
529,52	23708,65
529,69	23836,60
529,86	23806,89
530,03	23832,38
530,20	23899,53
530,37	23914,77
530,55	23931,25
530,72	23937,59
530,89	23855,65
531,06	23849,52
531,23	23865,83
531,40	24129,64
531,57	24098,32
531,74	23848,51
531,91	24121,06
532,08	24066,83
532,25	24266,99
532,42	24049,43
532,59	24096,33
532,76	24179,62
532,93	24130,31
533,11	24105,72
533,28	24216,24
533,45	24200,36
533,62	24203,75
533,79	24172,98
533,96	24262,17
534,13	24299,17
534,30	24156,05
534,47	24319,53
534,64	24548,09
534,81	24407,46
534,98	24315,83
535,15	24319,11
535,32	24563,48
535,49	24400,20
535,66	24427,73
535,83	24308,81
536,00	24567,71
536,17	24470,11
536,34	24496,39
536,51	24640,35
536,68	24456,02
536,85	24599,43
537,02	24678,99
537,19	24753,68
537,36	24818,99
537,53	24614,92
537,70	24728,71
537,87	24851,28
538,03	24868,50
538,20	24861,93
538,37	25048,24
538,54	24914,09
538,71	25093,10
538,88	24893,50
539,05	25068,62
539,22	24847,24
539,39	25121,30
539,56	25094,83
539,73	25191,38
539,90	25193,10
540,07	25179,77
540,24	25187,13
540,41	25320,89
540,57	25307,19
540,74	25248,36
540,91	25414,12
541,08	25281,08
541,25	25378,92
541,42	25323,50
541,59	25339,59
541,76	25417,77
541,93	25373,73
542,10	25391,94
542,26	25495,02
542,43	25326,53
542,60	25405,51
542,77	25533,48
542,94	25255,63
543,11	25628,04
543,28	25714,35
543,44	25649,58
543,61	25707,25
543,78	25696,75
543,95	25686,71
544,12	25716,47
544,29	25887,50
544,46	25749,49
544,62	25831,73
544,79	25799,22
544,96	25932,49
545,13	25801,68
545,30	26049,57
545,47	25887,88
545,63	26037,44
545,80	26001,24
545,97	26045,17
546,14	25940,66
546,31	26080,81
546,47	26179,10
546,64	26138,77
546,81	26239,23
546,98	26226,53
547,15	26382,57
547,31	26312,95
547,48	26434,00
547,65	26330,03
547,82	26398,83
547,99	26431,74
548,15	26468,27
548,32	26618,39
548,49	26577,65
548,66	26657,27
548,82	26691,81
548,99	26647,03
549,16	26814,71
549,33	26805,70
549,49	26714,36
549,66	26726,32
549,83	26822,65
550,00	26803,63
550,16	26908,03
550,33	27029,86
550,50	27088,09
550,66	26947,79
550,83	27022,96
551,00	26979,73
551,17	27124,19
551,33	26943,78
551,50	27129,56
551,67	27077,75
551,83	27254,93
552,00	27279,36
552,17	27252,14
552,34	27237,82
552,50	27248,77
552,67	27332,90
552,84	27242,38
553,00	27384,09
553,17	27393,50
553,34	27368,19
553,50	27491,52
553,67	27492,78
553,84	27646,77
554,00	27510,88
554,17	27579,12
554,34	27549,42
554,50	27701,13
554,67	27618,41
554,84	27537,18
555,00	27706,68
555,17	27675,79
555,34	27663,95
555,50	27805,80
555,67	27833,10
555,83	27856,00
556,00	27785,52
556,17	27885,86
556,33	27811,34
556,50	27810,59
556,67	27962,73
556,83	27965,66
557,00	27920,44
557,16	27988,81
557,33	27936,42
557,50	28087,67
557,66	28007,11
557,83	28032,32
557,99	28082,70
558,16	28101,09
558,32	27984,77
558,49	28093,17
558,66	28057,93
558,82	28218,96
558,99	28177,12
559,15	28131,74
559,32	28198,88
559,48	28231,21
559,65	28263,72
559,82	28236,36
559,98	28208,98
560,15	28171,76
560,31	28308,91
560,48	28175,23
560,64	28331,56
560,81	28246,48
560,97	28319,54
561,14	28255,80
561,30	28310,17
561,47	28319,33
561,63	28302,99
561,80	28213,31
561,96	28402,08
562,13	28337,19
562,29	28288,20
562,46	28345,31
562,62	28383,48
562,79	28410,13
562,95	28369,01
563,12	28349,28
563,28	28440,45
563,45	28253,65
563,61	28448,41
563,78	28338,81
563,94	28363,52
564,11	28363,39
564,27	28420,14
564,44	28338,70
564,60	28405,69
564,77	28358,38
564,93	28439,31
565,10	28338,50
565,26	28378,38
565,42	28280,07
565,59	28385,71
565,75	28344,19
565,92	28356,00
566,08	28336,74
566,25	28333,96
566,41	28293,38
566,57	28406,20
566,74	28336,81
566,90	28244,62
567,07	28264,36
567,23	28385,09
567,40	28316,91
567,56	28331,86
567,72	28213,70
567,89	28347,47
568,05	28370,24
568,21	28282,70
568,38	28379,68
568,54	28280,89
568,71	28274,50
568,87	28312,66
569,03	28197,54
569,20	28182,71
569,36	28211,41
569,52	28234,20
569,69	28147,88
569,85	28288,76
570,02	28189,97
570,18	28223,52
570,34	28175,15
570,51	28320,72
570,67	28285,09
570,83	28089,57
571,00	28242,56
571,16	28192,52
571,32	28228,54
571,49	27969,06
571,65	28126,90
571,81	28056,67
571,97	27876,70
572,14	27995,97
572,30	27939,87
572,46	27790,14
572,63	28072,08
572,79	28031,70
572,95	28047,95
573,12	28059,28
573,28	28115,56
573,44	27948,43
573,60	28119,10
573,77	27867,68
573,93	28048,13
574,09	28061,57
574,26	28012,76
574,42	27967,93
574,58	28054,19
574,74	28002,30
574,91	28025,72
575,07	27811,22
575,23	27842,06
575,39	28009,34
575,56	27854,26
575,72	27920,08
575,88	27925,31
576,04	28016,40
576,20	27828,41
576,37	27913,93
576,53	27882,50
576,69	27934,11
576,85	27837,71
577,02	27773,00
577,18	27891,89
577,34	27752,76
577,50	27862,96
577,66	27936,26
577,83	27900,70
577,99	27907,77
578,15	27732,40
578,31	27711,46
578,47	27812,23
578,63	27877,44
578,80	27741,09
578,96	27812,89
579,12	27819,07
579,28	27789,32
579,44	27816,70
579,60	27801,52
579,77	27876,60
579,93	27874,99
580,09	27594,34
580,25	27762,48
580,41	27916,81
580,57	27781,38
580,73	27683,61
580,90	27725,36
581,06	27866,42
581,22	27786,68
581,38	27825,57
581,54	27706,07
581,70	27654,40
581,86	27705,22
582,02	27775,95
582,18	27732,59
582,35	27523,66
582,51	27683,05
582,67	27826,31
582,83	27855,70
582,99	27801,23
583,15	27684,00
583,31	27829,37
583,47	27700,84
583,63	27815,39
583,79	27619,22
583,95	27583,61
584,11	27797,34
584,28	27478,64
584,44	27796,80
584,60	27712,57
584,76	27685,29
584,92	27731,54
585,08	27667,99
585,24	27566,51
585,40	27735,79
585,56	27808,92
585,72	27671,77
585,88	27656,10
586,04	27741,84
586,20	27622,00
586,36	27742,88
586,52	27652,62
586,68	27631,70
586,84	27769,27
587,00	27709,37
587,16	27762,20
587,32	27887,09
587,48	27707,45
587,64	27708,28
587,80	27743,10
587,96	27782,24
588,12	27800,81
588,28	27738,76
588,44	27805,91
588,60	27673,23
588,76	27615,45
588,92	27739,53
589,08	27789,30
589,24	27732,40
589,40	27647,26
589,56	27687,21
589,71	27711,78
589,87	27715,83
590,03	27704,06
590,19	27718,25
590,35	27719,51
590,51	27650,25
590,67	27692,30
590,83	27582,14
590,99	27627,08
591,15	27692,32
591,31	27658,85
591,47	27622,38
591,62	27555,19
591,78	27795,53
591,94	27642,47
592,10	27775,04
592,26	27541,70
592,42	27830,21
592,58	27779,53
592,74	27749,14
592,90	27689,67
593,05	27665,07
593,21	27620,75
593,37	27702,43
593,53	27747,33
593,69	27800,28
593,85	27664,40
594,01	27597,25
594,16	27741,40
594,32	27587,48
594,48	27843,48
594,64	27550,43
594,80	27716,56
594,96	27752,58
595,11	27820,00
595,27	27647,98
595,43	27704,41
595,59	27618,00
595,75	27770,05
595,91	27665,06
596,06	27589,56
596,22	27709,28
596,38	27659,59
596,54	27666,91
596,69	27693,81
596,85	27643,60
597,01	27688,63
597,17	27648,94
597,33	27709,11
597,48	27727,72
597,64	27585,82
597,80	27564,88
597,96	27635,08
598,11	27769,45
598,27	27584,79
598,43	27637,45
598,59	27659,95
598,74	27619,35
598,90	27589,72
599,06	27675,07
599,22	27601,63
599,37	27572,90
599,53	27691,17
599,69	27579,87
599,85	27641,77
600,00	27629,42
600,16	27610,50
600,32	27599,67
600,47	27627,26
600,63	27545,91
600,79	27487,20
600,94	27596,07
601,10	27627,86
601,26	27627,26
601,42	27489,44
601,57	27491,37
601,73	27492,87
601,89	27551,88
602,04	27566,26
602,20	27508,76
602,36	27494,58
602,51	27511,79
602,67	27459,80
602,83	27630,35
602,98	27481,35
603,14	27517,52
603,29	27395,76
603,45	27596,52
603,61	27354,97
603,76	27527,86
603,92	27471,13
604,08	27525,87
604,23	27462,96
604,39	27373,51
604,54	27359,06
604,70	27395,65
604,86	27362,73
605,01	27469,98
605,17	27430,73
605,32	27355,67
605,48	27388,86
605,64	27317,21
605,79	27285,12
605,95	27370,05
606,10	27273,92
606,26	27247,22
606,42	27305,42
606,57	27363,01
606,73	27317,94
606,88	27180,28
607,04	27214,19
607,19	27222,52
607,35	27182,09
607,50	27165,88
607,66	27075,13
607,82	27181,21
607,97	27113,66
608,13	27141,92
608,28	27178,98
608,44	27063,78
608,59	27090,98
608,75	27052,93
608,90	27039,87
609,06	27016,49
609,21	26955,00
609,37	26979,91
609,52	27011,89
609,68	26914,41
609,83	26991,90
609,99	26919,45
610,14	26859,46
610,30	26990,50
610,45	26903,83
610,61	26827,08
610,76	26907,65
610,92	26820,30
611,07	26800,95
611,22	26725,58
611,38	26683,65
611,53	26682,06
611,69	26701,96
611,84	26667,63
612,00	26559,88
612,15	26607,92
612,31	26630,38
612,46	26551,73
612,61	26568,26
612,77	26557,42
612,92	26531,34
613,08	26543,00
613,23	26452,23
613,38	26383,52
613,54	26326,69
613,69	26424,11
613,85	26323,88
614,00	26311,31
614,15	26261,41
614,31	26228,44
614,46	26291,20
614,62	26222,95
614,77	26166,13
614,92	26146,12
615,08	26090,00
615,23	26076,72
615,38	26019,23
615,54	26115,51
615,69	25954,65
615,85	25922,59
616,00	25976,60
616,15	25931,78
616,31	25760,64
616,46	25958,92
616,61	25739,15
616,77	25894,64
616,92	25663,83
617,07	25705,38
617,22	25625,68
617,38	25704,63
617,53	25503,27
617,68	25643,27
617,84	25469,72
617,99	25460,01
618,14	25430,60
618,30	25337,70
618,45	25351,11
618,60	25379,43
618,75	25311,90
618,91	25266,66
619,06	25282,66
619,21	25259,24
619,37	25148,72
619,52	25113,97
619,67	25049,78
619,82	25037,85
619,98	25131,37
620,13	25005,35
620,28	25040,11
620,43	24984,60
620,59	24870,32
620,74	24843,96
620,89	24967,83
621,04	24881,28
621,19	24843,83
621,35	24825,54
621,50	24703,27
621,65	24763,84
621,80	24766,65
621,95	24580,61
622,11	24666,37
622,26	24543,04
622,41	24489,04
622,56	24391,23
622,71	24380,67
622,87	24376,12
623,02	24377,94
623,17	24237,73
623,32	24237,22
623,47	24215,90
623,62	24150,29
623,78	24180,39
623,93	24095,83
624,08	24147,40
624,23	24071,89
624,38	24085,98
624,53	23852,68
624,68	23960,66
624,84	23971,75
624,99	23890,41
625,14	23891,40
625,29	23867,64
625,44	23837,39
625,59	23870,70
625,74	23922,71
625,89	23918,57
626,05	23699,17
626,20	23714,47
626,35	23577,44
626,50	23543,09
626,65	23639,04
626,80	23635,13
626,95	23637,84
627,10	23525,23
627,25	23464,20
627,40	23405,03
627,55	23362,24
627,70	23225,83
627,85	23409,29
628,00	23288,24
628,16	23315,37
628,31	23372,19
628,46	23161,67
628,61	23103,26
628,76	23022,39
628,91	23169,18
629,06	23041,85
629,21	23072,07
629,36	23063,02
629,51	23004,31
629,66	23080,32
629,81	22818,55
629,96	23024,99
630,11	22843,90
630,26	22829,00
630,41	22850,50
630,56	22727,49
630,71	22881,21
630,86	22769,62
631,01	22739,79
631,16	22599,03
631,31	22613,15
631,46	22674,18
631,61	22647,42
631,76	22638,48
631,91	22605,42
632,05	22500,12
632,20	22565,58
632,35	22514,90
632,50	22615,90
632,65	22395,76
632,80	22262,50
632,95	22486,08
633,10	22394,50
633,25	22331,38
633,40	22157,44
633,55	22119,08
633,70	22190,23
633,85	22240,17
633,99	22224,90
634,14	22195,21
634,29	22098,99
634,44	22046,49
634,59	22297,93
634,74	22094,97
634,89	22098,39
635,04	22267,83
635,19	22064,18
635,33	22059,13
635,48	21879,01
635,63	22095,01
635,78	21954,81
635,93	21899,97
636,08	21928,54
636,23	21782,91
636,37	21853,58
636,52	21800,81
636,67	21810,32
636,82	21785,13
636,97	21744,32
637,11	21631,61
637,26	21653,42
637,41	21682,77
637,56	21544,02
637,71	21611,48
637,86	21525,84
638,00	21591,98
638,15	21498,26
638,30	21552,44
638,45	21634,63
638,59	21349,58
638,74	21524,34
638,89	21491,84
639,04	21419,18
639,19	21503,66
639,33	21316,29
639,48	21436,17
639,63	21275,01
639,78	21368,96
639,92	21409,05
640,07	21394,40
640,22	21348,93
640,37	21322,46
640,51	21244,64
640,66	21162,45
640,81	21167,16
640,95	21115,09
641,10	21140,41
641,25	21029,86
641,40	21007,34
641,54	21069,32
641,69	21161,69
641,84	20971,92
641,98	20991,01
642,13	20918,89
642,28	20996,37
642,42	20957,77
642,57	20923,27
642,72	20876,71
642,86	20874,94
643,01	20860,94
643,16	20903,83
643,30	20814,48
643,45	20833,90
643,60	20739,69
643,74	20679,97
643,89	20736,94
644,04	20676,52
644,18	20623,22
644,33	20734,83
644,48	20600,98
644,62	20668,90
644,77	20532,31
644,91	20632,71
645,06	20649,11
645,21	20479,97
645,35	20547,54
645,50	20528,76
645,64	20404,62
645,79	20478,44
645,94	20458,41
646,08	20380,69
646,23	20421,60
646,37	20323,41
646,52	20358,29
646,66	20374,17
646,81	20281,92
646,96	20224,92
647,10	20318,68
647,25	20251,26
647,39	20283,69
647,54	20193,62
647,68	20157,80
647,83	20224,48
647,97	20222,00
648,12	20137,02
648,26	20076,65
648,41	20021,19
648,55	20057,68
648,70	20054,44
648,85	20124,33
648,99	19911,27
649,14	19983,40
649,28	19862,27
649,42	19980,44
649,57	19857,41
649,71	19858,31
649,86	19896,10
650,00	19857,36
650,15	19811,65
650,29	19904,44
650,44	19841,30
650,58	19673,09
650,73	19677,93
650,87	19586,83
651,02	19580,56
651,16	19593,93
651,31	19498,90
651,45	19561,84
651,59	19594,00
651,74	19452,18
651,88	19507,45
652,03	19497,99
652,17	19651,43
652,31	19443,96
652,46	19505,27
652,60	19394,62
652,75	19475,45
652,89	19401,54
653,04	19453,43
653,18	19374,64
653,32	19328,39
653,47	19372,49
653,61	19325,77
653,75	19205,13
653,90	19311,18
654,04	19196,14
654,18	19220,19
654,33	19239,49
654,47	19163,49
654,62	19120,27
654,76	19148,39
654,90	19183,99
655,05	19109,85
655,19	19123,65
655,33	19110,08
655,48	19096,73
655,62	18958,70
655,76	18913,43
655,91	18899,22
656,05	18861,40
656,19	18867,95
656,33	18852,02
656,48	18930,20
656,62	18767,67
656,76	18848,51
656,91	18792,71
657,05	18710,04
657,19	18795,70
657,33	18738,44
657,48	18715,47
657,62	18697,94
657,76	18726,43
657,90	18631,30
658,05	18555,58
658,19	18546,47
658,33	18501,38
658,47	18492,70
658,62	18558,00
658,76	18400,51
658,90	18438,01
659,04	18400,28
659,19	18414,01
659,33	18403,71
659,47	18387,57
659,61	18343,75
659,75	18336,73
659,90	18315,70
660,04	18300,78
660,18	18296,51
660,32	18267,13
660,46	18146,54
660,61	18210,96
660,75	18186,08
660,89	18011,89
661,03	18083,00
661,17	18074,09
661,31	18002,09
661,46	18025,82
661,60	18019,99
661,74	18051,39
661,88	18010,00
662,02	17929,18
662,16	17879,43
662,30	17946,00
662,45	17763,20
662,59	17809,89
662,73	17812,82
662,87	17825,18
663,01	17762,03
663,15	17688,26
663,29	17639,87
663,43	17610,99
663,57	17510,82
663,71	17615,60
663,86	17579,16
664,00	17520,09
664,14	17458,86
664,28	17473,49
664,42	17455,40
664,56	17424,08
664,70	17456,34
664,84	17349,54
664,98	17343,58
665,12	17304,40
665,26	17264,96
665,40	17224,85
665,54	17213,92
665,68	17128,95
665,82	17129,22
665,96	17063,75
666,10	17083,87
666,24	17004,05
666,38	16998,29
666,52	17010,77
666,66	16983,16
666,80	16936,13
666,94	16882,92
667,08	16894,88
667,22	16826,65
667,36	16755,07
667,50	16838,05
667,64	16742,17
667,78	16695,73
667,92	16717,96
668,06	16682,26
668,20	16578,79
668,34	16614,49
668,48	16532,14
668,62	16598,41
668,76	16540,95
668,90	16563,71
669,04	16420,47
669,18	16462,58
669,32	16440,58
669,46	16423,89
669,59	16401,90
669,73	16359,53
669,87	16359,62
670,01	16208,02
670,15	16264,46
670,29	16252,08
670,43	16174,32
670,57	16083,46
670,71	16080,89
670,85	16039,01
670,98	16030,59
671,12	15979,57
671,26	15981,61
671,40	15983,16
671,54	15987,18
671,68	15864,13
671,82	15803,50
671,95	15851,65
672,09	15810,57
672,23	15764,23
672,37	15785,92
672,51	15721,20
672,65	15654,11
672,78	15669,41
672,92	15586,26
673,06	15554,82
673,20	15580,43
673,34	15468,03
673,47	15467,32
673,61	15390,24
673,75	15388,19
673,89	15385,53
674,03	15319,46
674,16	15338,56
674,30	15278,61
674,44	15258,15
674,58	15261,61
674,71	15264,56
674,85	15198,72
674,99	15205,54
675,13	15185,87
675,26	15131,16
675,40	15044,18
675,54	14975,36
675,68	14958,57
675,81	14992,24
675,95	14906,28
676,09	14834,23
676,23	14876,58
676,36	14854,71
676,50	14799,75
676,64	14755,13
676,77	14773,31
676,91	14750,65
677,05	14738,12
677,18	14686,42
677,32	14673,81
677,46	14566,26
677,59	14598,52
677,73	14592,12
677,87	14572,28
678,00	14519,84
678,14	14470,09
678,28	14439,41
678,41	14368,71
678,55	14423,54
678,69	14289,41
678,82	14361,18
678,96	14273,68
679,10	14304,87
679,23	14251,01
679,37	14206,68
679,50	14263,56
679,64	14168,20
679,78	14098,96
679,91	14137,35
680,05	14082,82
680,18	14029,91
680,32	14086,43
680,46	14001,74
680,59	13989,81
680,73	13947,03
680,86	13940,13
681,00	13942,54
681,13	13863,28
681,27	13838,87
681,41	13753,16
681,54	13768,28
681,68	13753,90
681,81	13724,52
681,95	13651,79
682,08	13678,61
682,22	13603,14
682,35	13579,70
682,49	13525,41
682,62	13527,97
682,76	13561,00
682,89	13512,55
683,03	13488,84
683,16	13399,60
683,30	13405,48
683,43	13379,06
683,57	13330,99
683,70	13284,75
683,84	13275,72
683,97	13286,36
684,11	13206,25
684,24	13236,83
684,38	13144,25
684,51	13030,24
684,65	13141,35
684,78	13149,60
684,92	13114,40
685,05	13123,72
685,18	13033,02
685,32	13033,59
685,45	12984,69
685,59	12994,32
685,72	12966,46
685,85	12882,59
685,99	12880,07
686,12	12839,58
686,26	12840,10
686,39	12813,67
686,52	12789,46
686,66	12810,70
686,79	12729,89
686,93	12699,17
687,06	12676,12
687,19	12635,56
687,33	12644,91
687,46	12595,12
687,59	12561,15
687,73	12598,19
687,86	12572,22
688,00	12481,04
688,13	12464,90
688,26	12400,46
688,40	12468,46
688,53	12391,30
688,66	12413,38
688,79	12264,10
688,93	12298,15
689,06	12281,55
689,19	12269,26
689,33	12245,54
689,46	12291,32
689,59	12270,51
689,73	12190,30
689,86	12196,51
689,99	12077,82
690,12	12124,68
690,26	12022,85
690,39	12034,82
690,52	12027,43
690,65	12039,63
690,79	11950,31
690,92	11903,97
691,05	11923,44
691,18	11861,91
691,32	11899,78
691,45	11870,12
691,58	11778,78
691,71	11755,98
691,85	11726,89
691,98	11693,54
692,11	11687,95
692,24	11764,14
692,37	11637,80
692,51	11740,72
692,64	11616,04
692,77	11579,28
692,90	11531,79
693,03	11519,21
693,17	11487,88
693,30	11511,44
693,43	11428,11
693,56	11446,50
693,69	11359,49
693,82	11316,23
693,95	11286,30
694,09	11325,38
694,22	11240,48
694,35	11201,88
694,48	11091,89
694,61	11087,52
694,74	11042,70
694,87	11043,20
695,01	11083,56
695,14	10993,08
695,27	11006,52
695,40	10972,23
695,53	10995,97
695,66	10991,34
695,79	10946,74
695,92	10894,75
696,05	10930,23
696,18	10819,27
696,31	10789,01
696,44	10787,54
696,58	10761,98
696,71	10713,63
696,84	10638,01
696,97	10698,98
697,10	10607,83
697,23	10653,44
697,36	10602,29
697,49	10580,44
697,62	10581,20
697,75	10543,83
697,88	10458,23
698,01	10450,11
698,14	10360,67
698,27	10430,06
698,40	10408,45
698,53	10370,49
698,66	10328,81
698,79	10256,65
698,92	10199,42
699,05	10297,26
699,18	10177,30
699,31	10203,50
699,44	10127,22
699,57	10134,12
699,70	10140,93
699,83	10067,71
699,96	10052,11
700,08	9996,67
700,21	9956,69
700,34	10003,55
700,47	9998,48
700,60	9868,61
700,73	9843,10
700,86	9787,35
700,99	9866,55
701,12	9770,22
701,25	9809,38
701,38	9775,68
701,50	9652,95
701,63	9639,33
701,76	9591,14
701,89	9614,96
702,02	9583,30
702,15	9593,13
702,28	9526,25
702,41	9432,86
702,53	9460,65
702,66	9455,61
702,79	9412,21
702,92	9371,68
703,05	9371,48
703,18	9369,55
703,30	9294,41
703,43	9264,70
703,56	9203,30
703,69	9159,62
703,82	9221,34
703,95	9134,66
704,07	9148,00
704,20	9118,00
704,33	9091,90
704,46	9067,73
704,59	8976,27
704,71	8974,55
704,84	8959,06
704,97	8919,88
705,10	8861,88
705,22	8888,48
705,35	8860,04
705,48	8775,27
705,61	8782,49
705,73	8745,42
705,86	8684,43
705,99	8686,73
706,12	8673,54
706,24	8531,22
706,37	8523,58
706,50	8580,46
706,62	8485,93
706,75	8447,32
706,88	8383,76
707,01	8342,62
707,13	8335,84
707,26	8345,28
707,39	8284,70
707,51	8272,85
707,64	8208,17
707,77	8200,53
707,89	8153,60
708,02	8188,58
708,15	8134,88
708,27	8071,12
708,40	8105,25
708,53	8010,79
708,65	7980,61
708,78	7997,89
708,90	7931,40
709,03	7868,68
709,16	7904,18
709,28	7855,02
709,41	7818,19
709,54	7764,80
709,66	7765,45
709,79	7662,95
709,91	7652,12
710,04	7622,08
710,17	7555,49
710,29	7553,51
710,42	7538,90
710,54	7471,80
710,67	7431,70
710,79	7445,60
710,92	7385,93
711,04	7387,80
711,17	7360,05
711,30	7287,15
711,42	7282,97
711,55	7213,14
711,67	7231,72
711,80	7161,32
711,92	7152,84
712,05	7093,66
712,17	7094,73
712,30	7035,77
712,42	7033,21
712,55	6921,83
712,67	6935,55
712,80	6872,11
712,92	6846,10
713,05	6829,25
713,17	6779,72
713,30	6729,92
713,42	6715,10
713,55	6715,36
713,67	6699,92
713,79	6618,11
713,92	6566,97
714,04	6522,96
714,17	6545,24
714,29	6498,71
714,42	6442,48
714,54	6436,62
714,66	6383,46
714,79	6384,16
714,91	6325,16
715,04	6279,99
715,16	6275,04
715,29	6247,55
715,41	6165,84
715,53	6152,93
715,66	6162,86
715,78	6072,44
715,90	6055,14
716,03	6002,63
716,15	6023,60
716,28	5982,64
716,40	5903,70
716,52	5893,17
716,65	5844,07
716,77	5833,56
716,89	5813,72
717,02	5805,95
717,14	5726,10
717,26	5704,95
717,39	5686,37
717,51	5646,50
717,63	5630,96
717,75	5603,95
717,88	5571,58
718,00	5556,40
718,12	5488,63
718,25	5467,79
718,37	5422,82
718,49	5425,28
718,61	5366,79
718,74	5348,81
718,86	5308,01
718,98	5303,97
719,10	5267,60
719,23	5242,05
719,35	5205,69
719,47	5158,60
719,59	5170,71
719,72	5133,62
719,84	5108,23
719,96	5044,58
720,08	5012,85
720,21	5024,54
720,33	4969,29
720,45	4943,77
720,57	4911,22
720,69	4861,77
720,82	4840,34
720,94	4835,72
721,06	4786,22
721,18	4750,85
721,30	4731,98
721,42	4712,46
721,55	4688,98
721,67	4644,83
721,79	4617,87
721,91	4601,68
722,03	4578,09
722,15	4532,31
722,27	4512,15
722,40	4512,15
722,52	4512,15
>>>>>End Processed Spectral Data<<<<<
