SpectraSuite Datei
++++++++++++++++++++++++++++++++++++
Datum: Wed Sep 18 16:49:17 CEST 2024
Benutzer: Student
Dark-Spektrum vorhanden: Nein
Referenz-Spektrum vorhanden: Nein
Zahl der probierten Teilspektren: 1
Spektrometer: USB2+H15728
Integrationszeit (usec): 100000 (USB2+H15728)
Spektren Durchschnitt berechnet: 75 (USB2+H15728)
Boxcar Glättung: 0 (USB2+H15728)
Dunkelstromkorrektur: Nein (USB2+H15728)
Puls/Lampe aktiviert: Nein (USB2+H15728)
Correct for Detector Non-linearity: Nein (USB2+H15728)
Streulichtkorrektur: Nein (USB2+H15728)
Anzahl Pixel in verarbeitetem Spektrum: 2048
>>>>>Begin Processed Spectral Data<<<<<
0,00	1080,61
1,00	1080,61
2,00	1080,61
3,00	1056,80
4,00	1064,19
5,00	1062,23
6,00	1071,15
7,00	1085,17
8,00	1100,08
9,00	1096,84
10,00	1108,23
11,00	1138,16
12,00	1139,81
13,00	1184,34
14,00	1180,50
15,00	1195,11
16,00	1209,59
17,00	1225,04
18,00	1243,76
19,00	1271,66
20,00	1265,51
21,00	1285,17
22,00	1299,31
23,00	1322,28
24,00	1327,36
25,00	1339,38
26,00	1357,32
27,00	1368,12
28,00	1371,80
29,00	1386,85
30,00	1394,05
31,00	1402,42
32,00	1419,92
33,00	1406,91
34,00	1412,15
35,00	1421,39
36,00	1426,76
37,00	1416,90
38,00	1422,70
39,00	1433,72
40,00	1425,01
41,00	1434,00
42,00	1418,30
43,00	1426,32
44,00	1414,65
45,00	1414,37
46,00	1411,19
47,00	1421,14
48,00	1414,43
49,00	1432,41
50,00	1416,24
51,00	1410,22
52,00	1410,03
53,00	1423,86
54,00	1407,75
55,00	1401,42
56,00	1416,21
57,00	1406,10
58,00	1404,17
59,00	1402,51
60,00	1393,93
61,00	1398,30
62,00	1398,24
63,00	1393,59
64,00	1396,77
65,00	1392,99
66,00	1394,15
67,00	1394,93
68,00	1384,72
69,00	1385,10
70,00	1437,28
71,00	1399,17
72,00	1386,75
73,00	1387,00
74,00	1390,72
75,00	1389,75
76,00	1380,35
77,00	1395,65
78,00	1392,59
79,00	1392,53
80,00	1389,03
81,00	1389,47
82,00	1389,62
83,00	1385,19
84,00	1411,53
85,00	1392,09
86,00	1415,28
87,00	1414,09
88,00	1391,25
89,00	1389,28
90,00	1393,99
91,00	1407,94
92,00	1397,89
93,00	1397,86
94,00	1390,56
95,00	1389,22
96,00	1396,24
97,00	1431,75
98,00	1395,65
99,00	1389,25
100,00	1403,17
101,00	1401,76
102,00	1397,46
103,00	1397,99
104,00	1402,92
105,00	1407,25
106,00	1398,67
107,00	1401,11
108,00	1404,45
109,00	1399,52
110,00	1412,34
111,00	1412,40
112,00	1404,85
113,00	1405,76
114,00	1398,45
115,00	1392,65
116,00	1402,54
117,00	1400,01
118,00	1402,89
119,00	1419,30
120,00	1392,71
121,00	1400,55
122,00	1400,26
123,00	1399,30
124,00	1400,08
125,00	1399,95
126,00	1404,76
127,00	1403,76
128,00	1401,95
129,00	1406,79
130,00	1401,11
131,00	1405,94
132,00	1399,27
133,00	1409,78
134,00	1400,23
135,00	1391,65
136,00	1399,27
137,00	1406,47
138,00	1411,12
139,00	1398,36
140,00	1404,57
141,00	1410,63
142,00	1406,19
143,00	1402,79
144,00	1405,38
145,00	1401,48
146,00	1399,02
147,00	1415,65
148,00	1444,33
149,00	1410,56
150,00	1401,20
151,00	1413,50
152,00	1401,89
153,00	1399,95
154,00	1400,64
155,00	1398,52
156,00	1409,00
157,00	1403,48
158,00	1410,72
159,00	1406,76
160,00	1406,19
161,00	1413,53
162,00	1400,55
163,00	1402,51
164,00	1407,97
165,00	1403,04
166,00	1401,64
167,00	1406,26
168,00	1401,11
169,00	1401,67
170,00	1403,85
171,00	1394,77
172,00	1407,69
173,00	1407,01
174,00	1403,39
175,00	1403,32
176,00	1401,70
177,00	1404,73
178,00	1413,37
179,00	1406,88
180,00	1407,79
181,00	1407,63
182,00	1402,70
183,00	1425,82
184,00	1403,57
185,00	1400,86
186,00	1400,11
187,00	1408,72
188,00	1415,12
189,00	1407,50
190,00	1395,58
191,00	1398,14
192,00	1408,41
193,00	1411,78
194,00	1404,95
195,00	1408,19
196,00	1409,28
197,00	1402,85
198,00	1414,18
199,00	1402,79
200,00	1401,86
201,00	1411,50
202,00	1404,01
203,00	1409,19
204,00	1412,84
205,00	1414,56
206,00	1405,98
207,00	1407,07
208,00	1410,59
209,00	1410,81
210,00	1409,69
211,00	1420,64
212,00	1402,89
213,00	1413,28
214,00	1414,18
215,00	1410,38
216,00	1408,22
217,00	1412,44
218,00	1418,77
219,00	1404,63
220,00	1422,55
221,00	1417,87
222,00	1409,50
223,00	1406,13
224,00	1412,50
225,00	1408,22
226,00	1411,97
227,00	1403,14
228,00	1405,44
229,00	1411,78
230,00	1412,12
231,00	1414,28
232,00	1415,37
233,00	1408,25
234,00	1415,21
235,00	1411,37
236,00	1417,46
237,00	1410,72
238,00	1407,16
239,00	1403,85
240,00	1416,49
241,00	1412,87
242,00	1406,10
243,00	1422,58
244,00	1402,61
245,00	1407,88
246,00	1409,69
247,00	1414,37
248,00	1417,30
249,00	1420,33
250,00	1416,40
251,00	1404,01
252,00	1422,17
253,00	1417,09
254,00	1421,89
255,00	1412,90
256,00	1414,43
257,00	1412,09
258,00	1409,91
259,00	1409,60
260,00	1405,79
261,00	1408,53
262,00	1406,85
263,00	1407,35
264,00	1414,56
265,00	1416,40
266,00	1411,69
267,00	1412,84
268,00	1414,34
269,00	1403,88
270,00	1405,88
271,00	1419,92
272,00	1411,03
273,00	1418,43
274,00	1414,93
275,00	1416,46
276,00	1415,77
277,00	1418,18
278,00	1414,40
279,00	1422,48
280,00	1408,50
281,00	1415,56
282,00	1415,65
283,00	1416,93
284,00	1411,81
285,00	1411,59
286,00	1411,00
287,00	1415,21
288,00	1410,69
289,00	1411,78
290,00	1425,14
291,00	1410,09
292,00	1416,96
293,00	1410,19
294,00	1410,47
295,00	1416,43
296,00	1409,91
297,00	1412,56
298,00	1418,15
299,00	1419,71
300,00	1416,59
301,00	1423,08
302,00	1408,35
303,00	1415,71
304,00	1416,99
305,00	1425,76
306,00	1412,15
307,00	1407,66
308,00	1415,56
309,00	1412,40
310,00	1412,06
311,00	1406,26
312,00	1411,16
313,00	1424,95
314,00	1419,93
315,00	1418,71
316,00	1422,11
317,00	1414,34
318,00	1407,22
319,00	1422,14
320,00	1413,06
321,00	1411,41
322,00	1408,75
323,00	1407,35
324,00	1416,15
325,00	1426,32
326,00	1412,34
327,00	1415,06
328,00	1418,80
329,00	1421,14
330,00	1410,72
331,00	1416,80
332,00	1402,89
333,00	1414,59
334,00	1418,93
335,00	1410,50
336,00	1411,31
337,00	1416,68
338,00	1418,46
339,00	1408,25
340,00	1406,91
341,00	1416,90
342,00	1408,69
343,00	1425,17
344,00	1426,10
345,00	1414,93
346,00	1408,25
347,00	1419,77
348,00	1411,19
349,00	1420,08
350,00	1421,61
351,00	1409,97
352,00	1431,63
353,00	1416,52
354,00	1407,94
355,00	1406,57
356,00	1419,36
357,00	1420,95
358,00	1410,41
359,00	1413,22
360,00	1414,81
361,00	1411,16
362,00	1419,99
363,00	1420,17
364,00	1424,89
365,00	1423,11
366,00	1420,61
367,00	1408,88
368,00	1409,50
369,00	1410,31
370,00	1408,57
371,00	1406,04
372,00	1434,97
373,00	1409,56
374,00	1415,34
375,00	1421,20
376,00	1408,69
377,00	1475,13
378,00	1417,90
379,00	1415,18
380,00	1415,49
381,00	1431,19
382,00	1418,30
383,00	1415,03
384,00	1407,50
385,00	1420,71
386,00	1415,46
387,00	1415,03
388,00	1421,45
389,00	1423,14
390,00	1419,14
391,00	1423,01
392,00	1407,50
393,00	1410,34
394,00	1405,69
395,00	1419,86
396,00	1418,33
397,00	1414,06
398,00	1417,15
399,00	1416,80
400,00	1426,67
401,00	1415,43
402,00	1419,58
403,00	1410,41
404,00	1411,44
405,00	1425,54
406,00	1414,00
407,00	1421,61
408,00	1415,77
409,00	1422,39
410,00	1415,24
411,00	1413,78
412,00	1410,50
413,00	1415,09
414,00	1429,22
415,00	1426,79
416,00	1429,85
417,00	1416,43
418,00	1418,43
419,00	1417,37
420,00	1421,05
421,00	1417,30
422,00	1417,55
423,00	1413,40
424,00	1411,31
425,00	1421,67
426,00	1413,15
427,00	1410,50
428,00	1415,09
429,00	1406,91
430,00	1409,56
431,00	1419,74
432,00	1410,28
433,00	1408,69
434,00	1429,97
435,00	1425,23
436,00	1439,24
437,00	1417,99
438,00	1410,50
439,00	1415,59
440,00	1417,62
441,00	1416,68
442,00	1425,76
443,00	1412,37
444,00	1413,43
445,00	1419,93
446,00	1421,80
447,00	1417,09
448,00	1417,33
449,00	1416,34
450,00	1415,71
451,00	1429,16
452,00	1419,89
453,00	1411,44
454,00	1415,18
455,00	1415,87
456,00	1422,11
457,00	1447,86
458,00	1416,65
459,00	1416,18
460,00	1409,38
461,00	1410,97
462,00	1420,67
463,00	1420,58
464,00	1421,17
465,00	1404,95
466,00	1415,18
467,00	1417,49
468,00	1412,25
469,00	1429,04
470,00	1424,54
471,00	1417,55
472,00	1430,38
473,00	1412,40
474,00	1410,84
475,00	1424,20
476,00	1413,71
477,00	1413,93
478,00	1415,31
479,00	1421,61
480,00	1423,95
481,00	1408,69
482,00	1423,01
483,00	1428,13
484,00	1415,84
485,00	1424,54
486,00	1420,36
487,00	1412,93
488,00	1425,26
489,00	1419,46
490,00	1420,49
491,00	1422,52
492,00	1415,40
493,00	1413,56
494,00	1421,77
495,00	1424,70
496,00	1430,22
497,00	1406,44
498,00	1417,09
499,00	1406,54
500,00	1410,59
501,00	1414,12
502,00	1412,34
503,00	1420,24
504,00	1420,08
505,00	1423,55
506,00	1424,48
507,00	1429,16
508,00	1418,24
509,00	1417,62
510,00	1420,64
511,00	1421,36
512,00	1423,64
513,00	1422,64
514,00	1440,49
515,00	1410,09
516,00	1422,76
517,00	1410,53
518,00	1417,43
519,00	1423,64
520,00	1430,50
521,00	1408,66
522,00	1422,42
523,00	1430,75
524,00	1423,39
525,00	1411,16
526,00	1411,81
527,00	1422,11
528,00	1418,36
529,00	1420,61
530,00	1421,58
531,00	1418,24
532,00	1412,28
533,00	1422,11
534,00	1428,23
535,00	1417,24
536,00	1424,54
537,00	1420,61
538,00	1426,82
539,00	1422,02
540,00	1418,90
541,00	1421,39
542,00	1413,50
543,00	1418,05
544,00	1423,79
545,00	1422,33
546,00	1408,53
547,00	1422,89
548,00	1415,77
549,00	1420,42
550,00	1414,90
551,00	1419,83
552,00	1440,08
553,00	1424,39
554,00	1419,46
555,00	1423,79
556,00	1415,34
557,00	1418,15
558,00	1422,30
559,00	1422,20
560,00	1426,98
561,00	1428,76
562,00	1426,04
563,00	1413,62
564,00	1414,03
565,00	1414,31
566,00	1415,52
567,00	1421,89
568,00	1420,67
569,00	1422,05
570,00	1422,36
571,00	1421,83
572,00	1419,18
573,00	1420,14
574,00	1414,12
575,00	1420,67
576,00	1424,82
577,00	1410,97
578,00	1415,59
579,00	1420,42
580,00	1409,38
581,00	1420,52
582,00	1411,66
583,00	1418,68
584,00	1415,09
585,00	1420,17
586,00	1415,49
587,00	1418,83
588,00	1411,09
589,00	1413,43
590,00	1428,76
591,00	1412,25
592,00	1420,80
593,00	1420,14
594,00	1416,02
595,00	1422,05
596,00	1422,64
597,00	1423,08
598,00	1408,10
599,00	1417,55
600,00	1419,30
601,00	1700,73
602,00	1445,05
603,00	1423,08
604,00	1416,59
605,00	1425,98
606,00	1424,51
607,00	1415,31
608,00	1421,30
609,00	1427,29
610,00	1416,02
611,00	1409,91
612,00	1419,21
613,00	1425,57
614,00	1420,83
615,00	1413,78
616,00	1421,45
617,00	1424,73
618,00	1424,89
619,00	1414,09
620,00	1415,09
621,00	1415,46
622,00	1413,47
623,00	1420,77
624,00	1415,28
625,00	1432,35
626,00	1415,46
627,00	1426,23
628,00	1416,96
629,00	1420,58
630,00	1415,21
631,00	1415,90
632,00	1419,18
633,00	1411,94
634,00	1416,99
635,00	1421,95
636,00	1416,49
637,00	1421,20
638,00	1413,71
639,00	1423,67
640,00	1418,90
641,00	1420,39
642,00	1415,71
643,00	1414,06
644,00	1415,43
645,00	1424,17
646,00	1413,56
647,00	1417,37
648,00	1414,84
649,00	1419,52
650,00	1421,74
651,00	1415,87
652,00	1419,77
653,00	1413,22
654,00	1414,84
655,00	1421,17
656,00	1422,86
657,00	1417,49
658,00	1424,51
659,00	1423,39
660,00	1452,13
661,00	1422,11
662,00	1426,88
663,00	1422,52
664,00	1425,23
665,00	1415,71
666,00	1432,38
667,00	1414,96
668,00	1417,83
669,00	1421,45
670,00	1419,43
671,00	1417,30
672,00	1414,03
673,00	1422,05
674,00	1419,55
675,00	1412,87
676,00	1426,98
677,00	1415,77
678,00	1414,46
679,00	1417,24
680,00	1418,02
681,00	1414,90
682,00	1416,21
683,00	1424,82
684,00	1412,53
685,00	1413,75
686,00	1419,36
687,00	1423,20
688,00	1423,83
689,00	1430,60
690,00	1427,04
691,00	1415,99
692,00	1416,43
693,00	1417,24
694,00	1410,16
695,00	1425,73
696,00	1423,30
697,00	1422,33
698,00	1430,04
699,00	1449,01
700,00	1421,14
701,00	1427,51
702,00	1430,29
703,00	1421,74
704,00	1424,89
705,00	1421,36
706,00	1425,79
707,00	1410,87
708,00	1428,32
709,00	1419,24
710,00	1418,43
711,00	1415,77
712,00	1413,43
713,00	1417,71
714,00	1414,43
715,00	1415,56
716,00	1423,23
717,00	1423,70
718,00	1419,52
719,00	1411,75
720,00	1425,42
721,00	1424,64
722,00	1419,14
723,00	1442,64
724,00	1430,04
725,00	1425,36
726,00	1424,17
727,00	1418,08
728,00	1420,74
729,00	1431,75
730,00	1421,58
731,00	1424,20
732,00	1416,30
733,00	1413,28
734,00	1427,57
735,00	1418,65
736,00	1416,34
737,00	1409,00
738,00	1423,23
739,00	1424,51
740,00	1416,52
741,00	1420,92
742,00	1440,18
743,00	1416,46
744,00	1419,68
745,00	1412,72
746,00	1413,59
747,00	1416,24
748,00	1435,22
749,00	1428,76
750,00	1421,05
751,00	1414,31
752,00	1426,01
753,00	1427,88
754,00	1421,20
755,00	1431,41
756,00	1417,43
757,00	1420,99
758,00	1421,17
759,00	1412,84
760,00	1415,31
761,00	1418,55
762,00	1418,80
763,00	1431,50
764,00	1409,16
765,00	1426,45
766,00	1417,40
767,00	1417,37
768,00	1416,77
769,00	1413,40
770,00	1421,14
771,00	1407,94
772,00	1425,14
773,00	1424,33
774,00	1424,29
775,00	1428,29
776,00	1416,06
777,00	1419,99
778,00	1417,74
779,00	1414,06
780,00	1418,24
781,00	1424,04
782,00	1426,51
783,00	1417,52
784,00	1422,17
785,00	1428,41
786,00	1424,70
787,00	1412,34
788,00	1415,09
789,00	1411,25
790,00	1419,39
791,00	1419,11
792,00	1417,99
793,00	1411,09
794,00	1417,68
795,00	1419,83
796,00	1420,02
797,00	1412,09
798,00	1419,08
799,00	1420,21
800,00	1417,02
801,00	1427,35
802,00	1440,62
803,00	1429,26
804,00	1419,74
805,00	1417,83
806,00	1428,76
807,00	1411,09
808,00	1413,87
809,00	1417,37
810,00	1417,83
811,00	1418,08
812,00	1433,16
813,00	1423,70
814,00	1425,29
815,00	1417,99
816,00	1421,42
817,00	1419,64
818,00	1415,90
819,00	1433,09
820,00	1423,95
821,00	1427,98
822,00	1418,40
823,00	1418,83
824,00	1419,58
825,00	1418,24
826,00	1413,03
827,00	1421,42
828,00	1416,02
829,00	1421,64
830,00	1420,24
831,00	1420,55
832,00	1418,18
833,00	1423,17
834,00	1427,51
835,00	1418,90
836,00	1425,45
837,00	1431,35
838,00	1417,93
839,00	1416,15
840,00	1420,08
841,00	1755,84
842,00	1449,20
843,00	1433,00
844,00	1422,70
845,00	1427,26
846,00	1423,79
847,00	1416,15
848,00	1419,55
849,00	1425,89
850,00	1418,96
851,00	1411,00
852,00	1412,97
853,00	1415,52
854,00	1414,37
855,00	1416,62
856,00	1412,22
857,00	1415,31
858,00	1420,71
859,00	1435,90
860,00	1423,70
861,00	1421,67
862,00	1414,90
863,00	1415,65
864,00	1419,71
865,00	1421,92
866,00	1424,73
867,00	1423,73
868,00	1413,53
869,00	1419,99
870,00	1420,52
871,00	1414,28
872,00	1416,12
873,00	1420,02
874,00	1413,75
875,00	1416,80
876,00	1416,55
877,00	1412,62
878,00	1419,83
879,00	1430,41
880,00	1428,82
881,00	1418,55
882,00	1426,20
883,00	1418,61
884,00	1418,58
885,00	1412,25
886,00	1421,70
887,00	1417,99
888,00	1418,99
889,00	1421,30
890,00	1425,14
891,00	1436,71
892,00	1421,64
893,00	1414,62
894,00	1409,97
895,00	1416,77
896,00	1420,27
897,00	1418,74
898,00	1424,51
899,00	1418,46
900,00	1426,88
901,00	1418,83
902,00	1419,96
903,00	1410,94
904,00	1413,84
905,00	1416,49
906,00	1418,05
907,00	1420,42
908,00	1420,89
909,00	1417,33
910,00	1419,30
911,00	1422,20
912,00	1424,20
913,00	1420,49
914,00	1428,76
915,00	1422,02
916,00	1425,04
917,00	1414,06
918,00	1414,43
919,00	1419,64
920,00	1421,89
921,00	1414,81
922,00	1421,98
923,00	1425,17
924,00	1427,48
925,00	1414,12
926,00	1419,99
927,00	1422,20
928,00	1416,55
929,00	1419,05
930,00	1420,86
931,00	1424,17
932,00	1416,24
933,00	1422,80
934,00	1412,65
935,00	1423,76
936,00	1422,89
937,00	1418,49
938,00	1409,50
939,00	1424,76
940,00	1416,24
941,00	1416,55
942,00	1421,95
943,00	1422,61
944,00	1442,21
945,00	1420,71
946,00	1421,05
947,00	1419,77
948,00	1425,95
949,00	1418,83
950,00	1424,95
951,00	1429,04
952,00	1415,56
953,00	1417,09
954,00	1414,62
955,00	1424,23
956,00	1413,68
957,00	1411,78
958,00	1419,99
959,00	1415,56
960,00	1409,81
961,00	1423,76
962,00	1416,30
963,00	1421,08
964,00	1440,52
965,00	1431,85
966,00	1422,11
967,00	1423,95
968,00	1413,84
969,00	1434,41
970,00	1416,09
971,00	1422,67
972,00	1418,52
973,00	1423,33
974,00	1419,27
975,00	1420,14
976,00	1414,87
977,00	1416,87
978,00	1416,21
979,00	1421,42
980,00	1415,40
981,00	1416,12
982,00	1416,87
983,00	1410,50
984,00	1419,99
985,00	1419,77
986,00	1417,71
987,00	1427,98
988,00	1433,53
989,00	1422,80
990,00	1417,58
991,00	1415,31
992,00	1421,92
993,00	1416,87
994,00	1422,52
995,00	1432,06
996,00	1410,72
997,00	1423,61
998,00	1422,80
999,00	1429,69
1000,00	1414,65
1001,00	1427,66
1002,00	1415,12
1003,00	1422,02
1004,00	1425,01
1005,00	1412,28
1006,00	1411,47
1007,00	1418,65
1008,00	1415,06
1009,00	1411,34
1010,00	1419,43
1011,00	1416,24
1012,00	1429,60
1013,00	1419,39
1014,00	1413,18
1015,00	1416,49
1016,00	1418,83
1017,00	1421,77
1018,00	1426,10
1019,00	1422,73
1020,00	1410,28
1021,00	1419,11
1022,00	1420,36
1023,00	1415,59
1024,00	1421,55
1025,00	1411,09
1026,00	1416,09
1027,00	1412,97
1028,00	1429,51
1029,00	1415,56
1030,00	1413,34
1031,00	1410,78
1032,00	1423,11
1033,00	1423,95
1034,00	1421,70
1035,00	1414,93
1036,00	1415,28
1037,00	1423,58
1038,00	1421,52
1039,00	1419,02
1040,00	1418,90
1041,00	1420,42
1042,00	1421,61
1043,00	1419,24
1044,00	1459,25
1045,00	1428,13
1046,00	1414,90
1047,00	1415,06
1048,00	1422,61
1049,00	1418,40
1050,00	1416,93
1051,00	1422,27
1052,00	1422,98
1053,00	1426,45
1054,00	1417,90
1055,00	1426,29
1056,00	1429,47
1057,00	1415,37
1058,00	1412,37
1059,00	1421,70
1060,00	1414,00
1061,00	1423,01
1062,00	1409,53
1063,00	1413,34
1064,00	1425,39
1065,00	1412,72
1066,00	1415,49
1067,00	1426,85
1068,00	1422,55
1069,00	1422,48
1070,00	1426,60
1071,00	1424,64
1072,00	1421,11
1073,00	1412,15
1074,00	1418,86
1075,00	1426,95
1076,00	1414,78
1077,00	1413,62
1078,00	1426,54
1079,00	1410,66
1080,00	1431,75
1081,00	1428,94
1082,00	1422,73
1083,00	1429,44
1084,00	1417,65
1085,00	1420,21
1086,00	1416,65
1087,00	1423,98
1088,00	1426,70
1089,00	1419,02
1090,00	1417,74
1091,00	1424,95
1092,00	1424,89
1093,00	1437,78
1094,00	1420,64
1095,00	1417,83
1096,00	1416,27
1097,00	1424,36
1098,00	1413,96
1099,00	1434,41
1100,00	1422,48
1101,00	1420,71
1102,00	1418,61
1103,00	1426,29
1104,00	1425,11
1105,00	1436,59
1106,00	1422,67
1107,00	1421,61
1108,00	1422,70
1109,00	1407,69
1110,00	1408,66
1111,00	1429,66
1112,00	1424,70
1113,00	1419,77
1114,00	1414,71
1115,00	1415,37
1116,00	1423,08
1117,00	1416,21
1118,00	1416,52
1119,00	1421,14
1120,00	1429,97
1121,00	1436,68
1122,00	1421,61
1123,00	1417,65
1124,00	1427,13
1125,00	1413,25
1126,00	1414,59
1127,00	1419,46
1128,00	1443,83
1129,00	1411,87
1130,00	1406,10
1131,00	1421,64
1132,00	1422,08
1133,00	1419,86
1134,00	1430,41
1135,00	1419,92
1136,00	1423,67
1137,00	1420,42
1138,00	1423,58
1139,00	1420,30
1140,00	1417,62
1141,00	1422,42
1142,00	1419,02
1143,00	1416,55
1144,00	1425,29
1145,00	1430,97
1146,00	1419,27
1147,00	1428,54
1148,00	1416,77
1149,00	1410,63
1150,00	1417,52
1151,00	1430,38
1152,00	1424,01
1153,00	1424,45
1154,00	1422,45
1155,00	1416,46
1156,00	1429,44
1157,00	1415,99
1158,00	1420,36
1159,00	1414,71
1160,00	1422,33
1161,00	1422,89
1162,00	1420,36
1163,00	1417,30
1164,00	1420,11
1165,00	1424,76
1166,00	1432,66
1167,00	1418,27
1168,00	1427,63
1169,00	1422,14
1170,00	1414,56
1171,00	1435,37
1172,00	1416,80
1173,00	1423,83
1174,00	1415,62
1175,00	1414,46
1176,00	1416,12
1177,00	1424,26
1178,00	1432,16
1179,00	1421,30
1180,00	1420,64
1181,00	1422,17
1182,00	1426,45
1183,00	1428,01
1184,00	1421,67
1185,00	1421,30
1186,00	1422,08
1187,00	1421,80
1188,00	1411,09
1189,00	1415,03
1190,00	1413,15
1191,00	1421,52
1192,00	1425,89
1193,00	1417,87
1194,00	1411,78
1195,00	1420,14
1196,00	1429,22
1197,00	1418,15
1198,00	1432,35
1199,00	1427,82
1200,00	1428,66
1201,00	1418,30
1202,00	1418,90
1203,00	1429,26
1204,00	1415,40
1205,00	1426,48
1206,00	1418,93
1207,00	1419,89
1208,00	1422,48
1209,00	1417,18
1210,00	1412,93
1211,00	1420,05
1212,00	1421,17
1213,00	1415,90
1214,00	1412,28
1215,00	1423,30
1216,00	1413,78
1217,00	1427,85
1218,00	1410,22
1219,00	1416,90
1220,00	1420,36
1221,00	1429,94
1222,00	1427,41
1223,00	1419,30
1224,00	1419,74
1225,00	1416,18
1226,00	1421,86
1227,00	1422,45
1228,00	1426,35
1229,00	1416,02
1230,00	1414,74
1231,00	1412,84
1232,00	1411,28
1233,00	1413,96
1234,00	1420,52
1235,00	1416,90
1236,00	1420,58
1237,00	1415,46
1238,00	1418,99
1239,00	1426,01
1240,00	1417,58
1241,00	1418,99
1242,00	1404,13
1243,00	1421,17
1244,00	1411,90
1245,00	1429,07
1246,00	1415,59
1247,00	1427,85
1248,00	1423,39
1249,00	1423,89
1250,00	1422,08
1251,00	1421,70
1252,00	1409,85
1253,00	1429,04
1254,00	1421,42
1255,00	1424,48
1256,00	1421,17
1257,00	1426,20
1258,00	1411,09
1259,00	1412,78
1260,00	1426,92
1261,00	1422,08
1262,00	1412,62
1263,00	1415,12
1264,00	1417,05
1265,00	1415,03
1266,00	1438,15
1267,00	1421,45
1268,00	1411,37
1269,00	1422,64
1270,00	1422,05
1271,00	1418,43
1272,00	1420,02
1273,00	1423,95
1274,00	1414,03
1275,00	1422,17
1276,00	1439,49
1277,00	1483,40
1278,00	1435,53
1279,00	1426,26
1280,00	1420,86
1281,00	1419,68
1282,00	1416,15
1283,00	1413,47
1284,00	1414,12
1285,00	1429,13
1286,00	1423,42
1287,00	1422,08
1288,00	1413,37
1289,00	1436,12
1290,00	1422,08
1291,00	1418,65
1292,00	1422,86
1293,00	1413,62
1294,00	1410,28
1295,00	1411,59
1296,00	1425,23
1297,00	1419,77
1298,00	1424,20
1299,00	1415,62
1300,00	1426,63
1301,00	1425,07
1302,00	1436,81
1303,00	1417,30
1304,00	1432,69
1305,00	1429,60
1306,00	1419,43
1307,00	1423,58
1308,00	1429,04
1309,00	1412,87
1310,00	1424,67
1311,00	1416,80
1312,00	1417,24
1313,00	1415,43
1314,00	1418,40
1315,00	1431,13
1316,00	1416,96
1317,00	1410,16
1318,00	1417,99
1319,00	1417,02
1320,00	1420,67
1321,00	1422,95
1322,00	1472,04
1323,00	1422,89
1324,00	1419,05
1325,00	1418,08
1326,00	1416,30
1327,00	1417,65
1328,00	1426,57
1329,00	1419,52
1330,00	1421,58
1331,00	1420,11
1332,00	1414,12
1333,00	1421,49
1334,00	1408,75
1335,00	1421,52
1336,00	1425,39
1337,00	1422,30
1338,00	1419,68
1339,00	1420,30
1340,00	1426,54
1341,00	1424,20
1342,00	1423,61
1343,00	1427,10
1344,00	1423,64
1345,00	1414,90
1346,00	1411,59
1347,00	1411,87
1348,00	1413,78
1349,00	1414,09
1350,00	1429,04
1351,00	1428,41
1352,00	1415,46
1353,00	1417,80
1354,00	1449,17
1355,00	1413,87
1356,00	1413,12
1357,00	1417,15
1358,00	1422,58
1359,00	1432,31
1360,00	1418,21
1361,00	1419,36
1362,00	1422,11
1363,00	1417,46
1364,00	1425,42
1365,00	1419,96
1366,00	1420,27
1367,00	1420,17
1368,00	1413,12
1369,00	1414,96
1370,00	1419,80
1371,00	1413,00
1372,00	1415,37
1373,00	1435,09
1374,00	1418,30
1375,00	1417,05
1376,00	1423,48
1377,00	1429,26
1378,00	1421,39
1379,00	1416,06
1380,00	1440,18
1381,00	1419,61
1382,00	1415,34
1383,00	1428,88
1384,00	1425,89
1385,00	1428,32
1386,00	1430,91
1387,00	1422,11
1388,00	1420,71
1389,00	1434,62
1390,00	1414,00
1391,00	1417,49
1392,00	1436,81
1393,00	1424,01
1394,00	1414,43
1395,00	1413,34
1396,00	1423,26
1397,00	1416,12
1398,00	1446,11
1399,00	1519,76
1400,00	1429,19
1401,00	1425,20
1402,00	1448,04
1403,00	1421,58
1404,00	1422,08
1405,00	1417,74
1406,00	1420,86
1407,00	1418,18
1408,00	1417,87
1409,00	1417,80
1410,00	1417,33
1411,00	1577,55
1412,00	1428,07
1413,00	1409,06
1414,00	1412,81
1415,00	1412,50
1416,00	1407,85
1417,00	1406,69
1418,00	1423,55
1419,00	1424,73
1420,00	1417,30
1421,00	1411,28
1422,00	1413,68
1423,00	1418,08
1424,00	1414,96
1425,00	1408,82
1426,00	1416,80
1427,00	1422,23
1428,00	1411,72
1429,00	1414,25
1430,00	1414,18
1431,00	1414,31
1432,00	1416,49
1433,00	1414,37
1434,00	1424,48
1435,00	1431,78
1436,00	1417,05
1437,00	1420,58
1438,00	1427,51
1439,00	1420,83
1440,00	1419,39
1441,00	1417,55
1442,00	1414,93
1443,00	1413,62
1444,00	1412,65
1445,00	1409,50
1446,00	1423,89
1447,00	1413,00
1448,00	1416,99
1449,00	1411,59
1450,00	1413,68
1451,00	1406,44
1452,00	1421,74
1453,00	1422,20
1454,00	1417,80
1455,00	1425,64
1456,00	1417,71
1457,00	1428,44
1458,00	1421,83
1459,00	1415,21
1460,00	1414,43
1461,00	1417,46
1462,00	1413,00
1463,00	1423,92
1464,00	1410,34
1465,00	1416,99
1466,00	1415,81
1467,00	1422,67
1468,00	1422,36
1469,00	1418,08
1470,00	1417,21
1471,00	1425,92
1472,00	1425,23
1473,00	1416,84
1474,00	1417,49
1475,00	1413,93
1476,00	1426,10
1477,00	1432,91
1478,00	1455,25
1479,00	1435,22
1480,00	1423,51
1481,00	1425,39
1482,00	1424,67
1483,00	1418,49
1484,00	1429,91
1485,00	1423,05
1486,00	1414,15
1487,00	1419,68
1488,00	1424,26
1489,00	1416,96
1490,00	1421,45
1491,00	1424,57
1492,00	1422,76
1493,00	1414,84
1494,00	1414,90
1495,00	1424,36
1496,00	1420,27
1497,00	1428,01
1498,00	1422,76
1499,00	1422,86
1500,00	1420,67
1501,00	1417,24
1502,00	1417,80
1503,00	1435,12
1504,00	1420,86
1505,00	1426,35
1506,00	1416,87
1507,00	1417,77
1508,00	1419,49
1509,00	1414,78
1510,00	1406,60
1511,00	1421,58
1512,00	1424,01
1513,00	1419,43
1514,00	1419,05
1515,00	1417,12
1516,00	1463,33
1517,00	1428,38
1518,00	1416,46
1519,00	1424,79
1520,00	1420,14
1521,00	1419,39
1522,00	1419,93
1523,00	1421,02
1524,00	1417,43
1525,00	1416,46
1526,00	1416,40
1527,00	1416,06
1528,00	1425,14
1529,00	1415,12
1530,00	1413,81
1531,00	1413,43
1532,00	1414,90
1533,00	1413,25
1534,00	1418,83
1535,00	1413,22
1536,00	1414,15
1537,00	1413,47
1538,00	1422,05
1539,00	1423,55
1540,00	1424,79
1541,00	1420,71
1542,00	1418,68
1543,00	1414,74
1544,00	1420,83
1545,00	1426,04
1546,00	1420,21
1547,00	1416,59
1548,00	1410,84
1549,00	1407,82
1550,00	1417,87
1551,00	1421,64
1552,00	1416,55
1553,00	1412,97
1554,00	1415,06
1555,00	1414,68
1556,00	1415,09
1557,00	1423,17
1558,00	1418,08
1559,00	1423,05
1560,00	1417,71
1561,00	1413,40
1562,00	1426,92
1563,00	1420,30
1564,00	1416,93
1565,00	1415,37
1566,00	1417,93
1567,00	1421,52
1568,00	1422,08
1569,00	1420,39
1570,00	1411,87
1571,00	1425,11
1572,00	1416,37
1573,00	1416,21
1574,00	1432,97
1575,00	1410,56
1576,00	1418,99
1577,00	1420,52
1578,00	1420,89
1579,00	1415,68
1580,00	1412,22
1581,00	1412,62
1582,00	1416,90
1583,00	1424,57
1584,00	1419,27
1585,00	1415,40
1586,00	1415,87
1587,00	1417,77
1588,00	1426,17
1589,00	1415,34
1590,00	1417,80
1591,00	1414,37
1592,00	1436,09
1593,00	1412,59
1594,00	1422,33
1595,00	1414,15
1596,00	1411,66
1597,00	1423,48
1598,00	1415,56
1599,00	1417,12
1600,00	1412,53
1601,00	1416,34
1602,00	1420,36
1603,00	1426,73
1604,00	1417,71
1605,00	1423,64
1606,00	1423,79
1607,00	1420,77
1608,00	1414,56
1609,00	1418,36
1610,00	1418,18
1611,00	1424,89
1612,00	1417,93
1613,00	1420,83
1614,00	1411,69
1615,00	1414,18
1616,00	1427,70
1617,00	1420,36
1618,00	1419,58
1619,00	1417,24
1620,00	1430,35
1621,00	1417,46
1622,00	1420,77
1623,00	1421,58
1624,00	1419,77
1625,00	1427,45
1626,00	1432,69
1627,00	1421,86
1628,00	1420,36
1629,00	1467,11
1630,00	1419,27
1631,00	1411,41
1632,00	1417,02
1633,00	1418,65
1634,00	1415,15
1635,00	1422,64
1636,00	1412,62
1637,00	1421,86
1638,00	1412,87
1639,00	1414,71
1640,00	1418,99
1641,00	1423,48
1642,00	1427,23
1643,00	1425,51
1644,00	1427,79
1645,00	1415,03
1646,00	1413,93
1647,00	1424,39
1648,00	1419,43
1649,00	1419,71
1650,00	1430,29
1651,00	1425,26
1652,00	1406,13
1653,00	1416,37
1654,00	1412,06
1655,00	1413,59
1656,00	1414,90
1657,00	1434,44
1658,00	1411,87
1659,00	1425,70
1660,00	1428,41
1661,00	1427,23
1662,00	1416,65
1663,00	1420,08
1664,00	1417,49
1665,00	1416,40
1666,00	1422,95
1667,00	1439,27
1668,00	1417,52
1669,00	1418,49
1670,00	1425,70
1671,00	1419,80
1672,00	1420,42
1673,00	1420,11
1674,00	1427,01
1675,00	1424,26
1676,00	1423,79
1677,00	1421,70
1678,00	1419,89
1679,00	1417,96
1680,00	1423,73
1681,00	1420,67
1682,00	1440,93
1683,00	1424,51
1684,00	1425,45
1685,00	1425,26
1686,00	1415,06
1687,00	1412,12
1688,00	1424,98
1689,00	1420,42
1690,00	1417,99
1691,00	1421,64
1692,00	1416,27
1693,00	1433,28
1694,00	1416,24
1695,00	1425,98
1696,00	1422,70
1697,00	1421,17
1698,00	1418,05
1699,00	1417,71
1700,00	1422,30
1701,00	1420,08
1702,00	1412,84
1703,00	1416,87
1704,00	1417,30
1705,00	1421,27
1706,00	1412,53
1707,00	1415,12
1708,00	1415,28
1709,00	1424,48
1710,00	1413,34
1711,00	1410,31
1712,00	1417,71
1713,00	1423,20
1714,00	1416,12
1715,00	1425,60
1716,00	1427,85
1717,00	1425,39
1718,00	1431,94
1719,00	1426,98
1720,00	1419,18
1721,00	1417,33
1722,00	1413,65
1723,00	1426,57
1724,00	1429,54
1725,00	1427,48
1726,00	1416,77
1727,00	1417,37
1728,00	1426,63
1729,00	1420,21
1730,00	1426,35
1731,00	1418,18
1732,00	1433,94
1733,00	1422,86
1734,00	1416,15
1735,00	1419,11
1736,00	1418,86
1737,00	1404,82
1738,00	1418,15
1739,00	1428,29
1740,00	1422,23
1741,00	1436,65
1742,00	1425,73
1743,00	1418,40
1744,00	1413,18
1745,00	1416,37
1746,00	1410,50
1747,00	1415,87
1748,00	1419,83
1749,00	1433,38
1750,00	1423,83
1751,00	1432,75
1752,00	1420,52
1753,00	1414,15
1754,00	1415,49
1755,00	1420,49
1756,00	1424,26
1757,00	1428,54
1758,00	1419,24
1759,00	1412,62
1760,00	1417,15
1761,00	1420,21
1762,00	1420,42
1763,00	1411,62
1764,00	1429,35
1765,00	1415,06
1766,00	1414,65
1767,00	1408,53
1768,00	1412,22
1769,00	1417,09
1770,00	1420,71
1771,00	1413,84
1772,00	1430,54
1773,00	1418,40
1774,00	1420,30
1775,00	1411,28
1776,00	1422,36
1777,00	1413,62
1778,00	1413,03
1779,00	1418,33
1780,00	1415,99
1781,00	1410,25
1782,00	1420,67
1783,00	1419,33
1784,00	1419,80
1785,00	1422,73
1786,00	1421,30
1787,00	1408,10
1788,00	1420,58
1789,00	1421,20
1790,00	1427,17
1791,00	1409,56
1792,00	1418,30
1793,00	1421,80
1794,00	1416,21
1795,00	1419,30
1796,00	1419,18
1797,00	1411,66
1798,00	1408,91
1799,00	1412,25
1800,00	1426,42
1801,00	1416,65
1802,00	1414,43
1803,00	1420,80
1804,00	1423,92
1805,00	1422,67
1806,00	1422,42
1807,00	1417,80
1808,00	1411,06
1809,00	1419,14
1810,00	1424,82
1811,00	1419,71
1812,00	1418,58
1813,00	1409,22
1814,00	1414,06
1815,00	1419,30
1816,00	1428,26
1817,00	1418,65
1818,00	1456,50
1819,00	1432,44
1820,00	1425,79
1821,00	1411,25
1822,00	1417,83
1823,00	1413,71
1824,00	1420,74
1825,00	1437,06
1826,00	1411,72
1827,00	1427,88
1828,00	1439,49
1829,00	1420,86
1830,00	1420,39
1831,00	1420,36
1832,00	1413,28
1833,00	1415,31
1834,00	1418,99
1835,00	1417,90
1836,00	1414,31
1837,00	1413,90
1838,00	1426,63
1839,00	1427,66
1840,00	1441,65
1841,00	1417,55
1842,00	1425,17
1843,00	1424,76
1844,00	1433,25
1845,00	1421,58
1846,00	1416,68
1847,00	1411,87
1848,00	1423,08
1849,00	1420,27
1850,00	1418,21
1851,00	1420,77
1852,00	1412,72
1853,00	1413,15
1854,00	1414,87
1855,00	1418,77
1856,00	1415,59
1857,00	1422,73
1858,00	1428,29
1859,00	1416,15
1860,00	1418,40
1861,00	1449,63
1862,00	1416,15
1863,00	1415,03
1864,00	1410,16
1865,00	1415,84
1866,00	1419,46
1867,00	1415,93
1868,00	1422,42
1869,00	1417,05
1870,00	1423,64
1871,00	1416,24
1872,00	1421,98
1873,00	1424,95
1874,00	1426,26
1875,00	1414,15
1876,00	1420,30
1877,00	1416,71
1878,00	1431,63
1879,00	1417,15
1880,00	1415,37
1881,00	1417,74
1882,00	1414,00
1883,00	1415,74
1884,00	1414,78
1885,00	1421,08
1886,00	1419,02
1887,00	1411,09
1888,00	1418,02
1889,00	1420,80
1890,00	1413,06
1891,00	1419,86
1892,00	1425,82
1893,00	1426,35
1894,00	1417,15
1895,00	1411,90
1896,00	1425,51
1897,00	1434,84
1898,00	1414,37
1899,00	1418,77
1900,00	1412,90
1901,00	1416,49
1902,00	1422,33
1903,00	1431,41
1904,00	1417,80
1905,00	1448,23
1906,00	1408,75
1907,00	1417,21
1908,00	1448,32
1909,00	1421,45
1910,00	1425,57
1911,00	1418,58
1912,00	1419,92
1913,00	1430,35
1914,00	1420,86
1915,00	1413,62
1916,00	1430,50
1917,00	1430,54
1918,00	1412,56
1919,00	1418,96
1920,00	1419,36
1921,00	1424,42
1922,00	1415,87
1923,00	1414,68
1924,00	1422,92
1925,00	1414,28
1926,00	1423,76
1927,00	1421,74
1928,00	1426,95
1929,00	1425,11
1930,00	1411,81
1931,00	1417,52
1932,00	1436,18
1933,00	1423,98
1934,00	1413,06
1935,00	1410,13
1936,00	1417,02
1937,00	1413,03
1938,00	1417,24
1939,00	1410,31
1940,00	1439,21
1941,00	1413,47
1942,00	1415,87
1943,00	1419,36
1944,00	1419,33
1945,00	1413,75
1946,00	1417,24
1947,00	1414,65
1948,00	1429,63
1949,00	1417,43
1950,00	1422,27
1951,00	1416,87
1952,00	1416,02
1953,00	1422,64
1954,00	1432,53
1955,00	1421,52
1956,00	1412,62
1957,00	1418,36
1958,00	1412,12
1959,00	1422,70
1960,00	1416,59
1961,00	1425,92
1962,00	1412,90
1963,00	1419,49
1964,00	1418,36
1965,00	1419,80
1966,00	1415,93
1967,00	1420,99
1968,00	1416,40
1969,00	1415,56
1970,00	1423,17
1971,00	1434,19
1972,00	1423,76
1973,00	1426,82
1974,00	1417,52
1975,00	1418,65
1976,00	1416,27
1977,00	1424,98
1978,00	1420,46
1979,00	1423,58
1980,00	1452,35
1981,00	1426,73
1982,00	1416,30
1983,00	1422,27
1984,00	1422,80
1985,00	1433,06
1986,00	1413,75
1987,00	1419,83
1988,00	1416,49
1989,00	1420,71
1990,00	1427,41
1991,00	1423,45
1992,00	1420,99
1993,00	1436,87
1994,00	1426,82
1995,00	1415,81
1996,00	1416,84
1997,00	1415,65
1998,00	1421,86
1999,00	1414,56
2000,00	1411,59
2001,00	1417,24
2002,00	1430,13
2003,00	1411,87
2004,00	1423,76
2005,00	1414,71
2006,00	1427,76
2007,00	1415,43
2008,00	1412,44
2009,00	1431,50
2010,00	1410,31
2011,00	1411,97
2012,00	1423,05
2013,00	1417,12
2014,00	1415,43
2015,00	1416,90
2016,00	1416,43
2017,00	1417,90
2018,00	1420,08
2019,00	1416,34
2020,00	1415,90
2021,00	1417,02
2022,00	1424,82
2023,00	1424,54
2024,00	1415,37
2025,00	1419,46
2026,00	1409,50
2027,00	1418,52
2028,00	1426,07
2029,00	1411,25
2030,00	1415,37
2031,00	1414,56
2032,00	1414,09
2033,00	1424,51
2034,00	1423,73
2035,00	1420,05
2036,00	1417,93
2037,00	1412,78
2038,00	1416,37
2039,00	1416,62
2040,00	1417,18
2041,00	1423,33
2042,00	1411,22
2043,00	1420,52
2044,00	1420,83
2045,00	1413,84
2046,00	1413,84
2047,00	1413,84
>>>>>End Processed Spectral Data<<<<<
