SpectraSuite Datei
++++++++++++++++++++++++++++++++++++
Datum: Thu Sep 19 12:57:33 CEST 2024
Benutzer: Student
Dark-Spektrum vorhanden: Nein
Referenz-Spektrum vorhanden: Nein
Zahl der probierten Teilspektren: 1
Spektrometer: USB2+H15728
Integrationszeit (usec): 100000 (USB2+H15728)
Spektren Durchschnitt berechnet: 500 (USB2+H15728)
Boxcar Glättung: 0 (USB2+H15728)
Dunkelstromkorrektur: Nein (USB2+H15728)
Puls/Lampe aktiviert: Nein (USB2+H15728)
Correct for Detector Non-linearity: Nein (USB2+H15728)
Streulichtkorrektur: Nein (USB2+H15728)
Anzahl Pixel in verarbeitetem Spektrum: 2048
>>>>>Begin Processed Spectral Data<<<<<
0,00	883,09
1,00	883,09
2,00	883,09
3,00	852,40
4,00	861,26
5,00	865,00
6,00	866,23
7,00	874,52
8,00	895,21
9,00	900,30
10,00	910,83
11,00	932,83
12,00	934,19
13,00	980,09
14,00	968,94
15,00	990,90
16,00	1003,67
17,00	1029,08
18,00	1034,27
19,00	1067,69
20,00	1067,75
21,00	1082,60
22,00	1103,24
23,00	1121,92
24,00	1121,90
25,00	1141,57
26,00	1154,48
27,00	1170,31
28,00	1172,09
29,00	1176,91
30,00	1193,36
31,00	1197,60
32,00	1222,61
33,00	1208,44
34,00	1214,40
35,00	1218,09
36,00	1221,54
37,00	1214,66
38,00	1222,28
39,00	1239,62
40,00	1219,74
41,00	1237,68
42,00	1225,69
43,00	1230,45
44,00	1219,88
45,00	1222,57
46,00	1216,27
47,00	1226,99
48,00	1217,75
49,00	1230,11
50,00	1215,28
51,00	1219,01
52,00	1212,12
53,00	1224,68
54,00	1209,27
55,00	1204,54
56,00	1216,77
57,00	1202,58
58,00	1205,54
59,00	1199,22
60,00	1192,70
61,00	1197,84
62,00	1197,05
63,00	1188,76
64,00	1192,77
65,00	1188,49
66,00	1190,86
67,00	1189,15
68,00	1191,28
69,00	1187,99
70,00	1246,74
71,00	1194,76
72,00	1192,30
73,00	1188,38
74,00	1187,88
75,00	1186,80
76,00	1185,43
77,00	1192,55
78,00	1191,62
79,00	1191,27
80,00	1189,37
81,00	1184,88
82,00	1195,25
83,00	1187,70
84,00	1212,70
85,00	1196,04
86,00	1216,72
87,00	1214,08
88,00	1189,68
89,00	1187,02
90,00	1191,12
91,00	1207,14
92,00	1193,51
93,00	1200,78
94,00	1188,89
95,00	1192,76
96,00	1193,20
97,00	1242,60
98,00	1194,85
99,00	1194,89
100,00	1201,51
101,00	1204,15
102,00	1194,39
103,00	1199,49
104,00	1193,88
105,00	1209,40
106,00	1202,15
107,00	1204,78
108,00	1205,05
109,00	1196,74
110,00	1219,59
111,00	1205,26
112,00	1194,91
113,00	1206,69
114,00	1198,16
115,00	1196,53
116,00	1200,86
117,00	1199,62
118,00	1200,87
119,00	1224,84
120,00	1201,26
121,00	1198,66
122,00	1202,60
123,00	1196,49
124,00	1197,25
125,00	1195,04
126,00	1203,89
127,00	1208,40
128,00	1201,78
129,00	1205,81
130,00	1205,31
131,00	1209,79
132,00	1201,82
133,00	1210,64
134,00	1202,80
135,00	1202,28
136,00	1199,20
137,00	1208,51
138,00	1220,39
139,00	1210,41
140,00	1207,30
141,00	1213,98
142,00	1203,65
143,00	1198,45
144,00	1206,76
145,00	1200,23
146,00	1203,63
147,00	1219,68
148,00	1256,18
149,00	1212,60
150,00	1199,31
151,00	1208,84
152,00	1201,77
153,00	1202,17
154,00	1202,54
155,00	1198,60
156,00	1215,42
157,00	1202,85
158,00	1207,61
159,00	1211,45
160,00	1209,29
161,00	1217,12
162,00	1199,92
163,00	1203,95
164,00	1199,31
165,00	1201,04
166,00	1204,14
167,00	1208,65
168,00	1196,24
169,00	1202,46
170,00	1204,94
171,00	1200,02
172,00	1215,74
173,00	1200,29
174,00	1202,51
175,00	1207,10
176,00	1204,65
177,00	1205,94
178,00	1210,31
179,00	1204,06
180,00	1210,13
181,00	1206,58
182,00	1201,92
183,00	1230,96
184,00	1202,06
185,00	1201,45
186,00	1199,61
187,00	1204,95
188,00	1217,21
189,00	1204,89
190,00	1200,82
191,00	1202,38
192,00	1208,82
193,00	1203,04
194,00	1207,75
195,00	1213,84
196,00	1216,31
197,00	1210,01
198,00	1228,94
199,00	1203,85
200,00	1201,59
201,00	1216,16
202,00	1210,28
203,00	1211,12
204,00	1206,66
205,00	1210,84
206,00	1205,85
207,00	1208,24
208,00	1210,12
209,00	1208,82
210,00	1216,17
211,00	1216,77
212,00	1205,32
213,00	1214,98
214,00	1212,43
215,00	1209,79
216,00	1209,07
217,00	1210,03
218,00	1221,51
219,00	1206,41
220,00	1226,74
221,00	1210,49
222,00	1216,44
223,00	1210,17
224,00	1209,97
225,00	1205,98
226,00	1208,96
227,00	1207,25
228,00	1209,00
229,00	1211,41
230,00	1208,40
231,00	1216,07
232,00	1213,29
233,00	1212,72
234,00	1213,89
235,00	1211,68
236,00	1228,18
237,00	1211,31
238,00	1206,98
239,00	1207,47
240,00	1216,63
241,00	1216,56
242,00	1211,13
243,00	1220,11
244,00	1212,93
245,00	1206,19
246,00	1209,88
247,00	1213,41
248,00	1218,99
249,00	1219,73
250,00	1221,22
251,00	1214,32
252,00	1219,92
253,00	1213,73
254,00	1219,07
255,00	1205,99
256,00	1216,08
257,00	1212,88
258,00	1208,94
259,00	1210,41
260,00	1209,72
261,00	1213,76
262,00	1206,95
263,00	1208,06
264,00	1214,58
265,00	1210,74
266,00	1207,62
267,00	1212,30
268,00	1216,42
269,00	1218,11
270,00	1215,21
271,00	1218,69
272,00	1215,30
273,00	1212,41
274,00	1210,53
275,00	1215,87
276,00	1209,27
277,00	1214,80
278,00	1211,34
279,00	1216,61
280,00	1206,95
281,00	1214,27
282,00	1210,13
283,00	1217,68
284,00	1211,82
285,00	1214,65
286,00	1216,42
287,00	1214,48
288,00	1209,65
289,00	1211,55
290,00	1221,00
291,00	1208,67
292,00	1220,15
293,00	1215,90
294,00	1218,23
295,00	1215,25
296,00	1209,24
297,00	1208,69
298,00	1214,60
299,00	1215,16
300,00	1215,25
301,00	1216,54
302,00	1214,17
303,00	1220,41
304,00	1210,36
305,00	1220,83
306,00	1215,23
307,00	1211,33
308,00	1212,53
309,00	1216,01
310,00	1211,81
311,00	1210,43
312,00	1215,88
313,00	1226,96
314,00	1220,04
315,00	1211,53
316,00	1217,18
317,00	1209,19
318,00	1207,81
319,00	1213,38
320,00	1212,11
321,00	1213,39
322,00	1212,10
323,00	1222,33
324,00	1213,42
325,00	1224,41
326,00	1211,71
327,00	1216,25
328,00	1218,97
329,00	1222,81
330,00	1212,25
331,00	1211,94
332,00	1210,59
333,00	1221,57
334,00	1214,67
335,00	1217,36
336,00	1218,31
337,00	1214,69
338,00	1222,99
339,00	1211,77
340,00	1208,88
341,00	1212,47
342,00	1212,51
343,00	1226,85
344,00	1233,89
345,00	1213,48
346,00	1209,29
347,00	1220,50
348,00	1210,09
349,00	1226,94
350,00	1214,46
351,00	1210,49
352,00	1233,69
353,00	1220,94
354,00	1211,11
355,00	1213,31
356,00	1218,67
357,00	1224,84
358,00	1208,79
359,00	1211,80
360,00	1216,21
361,00	1217,79
362,00	1223,46
363,00	1220,50
364,00	1224,56
365,00	1214,44
366,00	1215,81
367,00	1213,12
368,00	1212,22
369,00	1210,66
370,00	1210,12
371,00	1211,99
372,00	1230,83
373,00	1211,95
374,00	1216,11
375,00	1218,60
376,00	1212,21
377,00	1280,91
378,00	1217,37
379,00	1214,86
380,00	1211,57
381,00	1235,44
382,00	1220,16
383,00	1215,99
384,00	1211,85
385,00	1213,15
386,00	1217,52
387,00	1218,60
388,00	1218,26
389,00	1227,27
390,00	1222,73
391,00	1216,20
392,00	1212,17
393,00	1215,88
394,00	1217,29
395,00	1217,81
396,00	1221,05
397,00	1212,94
398,00	1222,30
399,00	1216,25
400,00	1221,61
401,00	1213,83
402,00	1213,47
403,00	1212,36
404,00	1219,91
405,00	1223,44
406,00	1213,17
407,00	1222,08
408,00	1214,66
409,00	1224,88
410,00	1217,76
411,00	1211,90
412,00	1211,85
413,00	1211,67
414,00	1234,55
415,00	1222,84
416,00	1228,55
417,00	1215,23
418,00	1214,13
419,00	1216,07
420,00	1220,78
421,00	1214,99
422,00	1220,57
423,00	1213,56
424,00	1215,92
425,00	1212,92
426,00	1212,27
427,00	1216,41
428,00	1215,21
429,00	1215,16
430,00	1213,21
431,00	1215,95
432,00	1213,61
433,00	1212,36
434,00	1223,67
435,00	1220,75
436,00	1232,33
437,00	1219,82
438,00	1217,53
439,00	1214,93
440,00	1221,08
441,00	1219,11
442,00	1223,38
443,00	1216,77
444,00	1216,94
445,00	1216,12
446,00	1221,91
447,00	1214,63
448,00	1230,16
449,00	1218,97
450,00	1212,82
451,00	1232,49
452,00	1229,41
453,00	1216,86
454,00	1223,93
455,00	1215,04
456,00	1219,98
457,00	1252,13
458,00	1216,33
459,00	1216,17
460,00	1213,23
461,00	1212,75
462,00	1212,31
463,00	1216,68
464,00	1219,44
465,00	1212,07
466,00	1221,33
467,00	1218,82
468,00	1217,00
469,00	1218,22
470,00	1227,61
471,00	1219,02
472,00	1232,66
473,00	1213,68
474,00	1211,91
475,00	1222,32
476,00	1212,83
477,00	1215,03
478,00	1225,44
479,00	1219,10
480,00	1216,26
481,00	1213,30
482,00	1217,01
483,00	1229,77
484,00	1224,80
485,00	1231,49
486,00	1211,18
487,00	1215,23
488,00	1220,67
489,00	1215,36
490,00	1223,46
491,00	1222,61
492,00	1215,99
493,00	1212,97
494,00	1219,12
495,00	1230,43
496,00	1222,96
497,00	1214,06
498,00	1217,94
499,00	1211,02
500,00	1211,94
501,00	1215,00
502,00	1220,17
503,00	1217,73
504,00	1220,20
505,00	1221,33
506,00	1230,20
507,00	1233,98
508,00	1229,35
509,00	1216,00
510,00	1215,75
511,00	1222,96
512,00	1217,41
513,00	1228,75
514,00	1245,53
515,00	1215,93
516,00	1219,96
517,00	1214,73
518,00	1218,81
519,00	1232,03
520,00	1226,16
521,00	1212,34
522,00	1221,31
523,00	1240,06
524,00	1221,05
525,00	1214,45
526,00	1212,61
527,00	1220,90
528,00	1221,70
529,00	1221,59
530,00	1218,88
531,00	1217,75
532,00	1213,08
533,00	1220,51
534,00	1216,16
535,00	1223,57
536,00	1223,89
537,00	1220,53
538,00	1231,25
539,00	1220,76
540,00	1213,78
541,00	1225,25
542,00	1216,40
543,00	1220,85
544,00	1224,50
545,00	1216,91
546,00	1212,82
547,00	1223,48
548,00	1219,02
549,00	1212,76
550,00	1216,69
551,00	1222,11
552,00	1247,22
553,00	1227,91
554,00	1224,36
555,00	1228,56
556,00	1216,85
557,00	1218,51
558,00	1214,12
559,00	1217,97
560,00	1229,60
561,00	1230,75
562,00	1224,40
563,00	1216,74
564,00	1220,86
565,00	1222,66
566,00	1218,76
567,00	1221,32
568,00	1220,15
569,00	1217,95
570,00	1221,98
571,00	1218,84
572,00	1214,03
573,00	1218,04
574,00	1217,86
575,00	1222,81
576,00	1229,79
577,00	1217,89
578,00	1214,34
579,00	1212,87
580,00	1219,02
581,00	1221,43
582,00	1215,81
583,00	1214,91
584,00	1212,86
585,00	1227,71
586,00	1216,00
587,00	1218,82
588,00	1217,47
589,00	1219,76
590,00	1225,33
591,00	1215,31
592,00	1224,34
593,00	1219,84
594,00	1216,32
595,00	1218,46
596,00	1223,67
597,00	1222,33
598,00	1212,27
599,00	1221,92
600,00	1220,54
601,00	1591,07
602,00	1247,70
603,00	1220,73
604,00	1218,63
605,00	1219,52
606,00	1220,50
607,00	1217,27
608,00	1222,51
609,00	1223,01
610,00	1216,90
611,00	1213,58
612,00	1224,31
613,00	1216,59
614,00	1224,75
615,00	1219,22
616,00	1222,34
617,00	1228,28
618,00	1222,98
619,00	1212,88
620,00	1215,87
621,00	1222,05
622,00	1214,20
623,00	1221,14
624,00	1213,63
625,00	1237,64
626,00	1214,99
627,00	1228,34
628,00	1219,63
629,00	1222,62
630,00	1218,38
631,00	1217,63
632,00	1223,91
633,00	1213,83
634,00	1219,07
635,00	1227,45
636,00	1218,93
637,00	1216,32
638,00	1215,66
639,00	1217,62
640,00	1221,98
641,00	1220,66
642,00	1222,65
643,00	1220,31
644,00	1215,48
645,00	1217,81
646,00	1211,94
647,00	1216,18
648,00	1213,07
649,00	1216,35
650,00	1220,73
651,00	1213,76
652,00	1219,45
653,00	1212,73
654,00	1215,75
655,00	1216,89
656,00	1224,83
657,00	1216,08
658,00	1227,57
659,00	1221,43
660,00	1259,59
661,00	1228,98
662,00	1223,85
663,00	1222,65
664,00	1224,84
665,00	1218,87
666,00	1231,60
667,00	1218,07
668,00	1212,35
669,00	1226,69
670,00	1224,63
671,00	1224,04
672,00	1218,28
673,00	1223,75
674,00	1222,67
675,00	1215,39
676,00	1229,28
677,00	1220,17
678,00	1215,94
679,00	1218,46
680,00	1217,55
681,00	1216,33
682,00	1224,17
683,00	1219,00
684,00	1217,36
685,00	1221,40
686,00	1222,03
687,00	1229,48
688,00	1217,17
689,00	1235,38
690,00	1235,68
691,00	1221,34
692,00	1224,13
693,00	1220,59
694,00	1215,75
695,00	1227,55
696,00	1224,13
697,00	1217,64
698,00	1227,12
699,00	1254,54
700,00	1219,02
701,00	1233,01
702,00	1229,56
703,00	1216,66
704,00	1228,78
705,00	1219,04
706,00	1227,37
707,00	1220,95
708,00	1228,17
709,00	1218,14
710,00	1216,85
711,00	1226,29
712,00	1218,97
713,00	1218,16
714,00	1218,00
715,00	1216,37
716,00	1221,68
717,00	1222,01
718,00	1218,05
719,00	1215,93
720,00	1228,25
721,00	1225,56
722,00	1220,87
723,00	1241,34
724,00	1223,82
725,00	1225,91
726,00	1220,78
727,00	1217,06
728,00	1220,55
729,00	1237,74
730,00	1214,06
731,00	1222,79
732,00	1223,04
733,00	1218,60
734,00	1228,94
735,00	1218,88
736,00	1218,03
737,00	1214,27
738,00	1217,05
739,00	1218,68
740,00	1221,26
741,00	1226,48
742,00	1241,96
743,00	1221,82
744,00	1219,37
745,00	1214,08
746,00	1220,34
747,00	1219,27
748,00	1228,15
749,00	1231,74
750,00	1218,62
751,00	1220,58
752,00	1226,80
753,00	1232,63
754,00	1228,15
755,00	1239,64
756,00	1245,69
757,00	1268,21
758,00	1297,98
759,00	1335,08
760,00	1315,00
761,00	1271,33
762,00	1249,56
763,00	1244,40
764,00	1226,25
765,00	1231,87
766,00	1220,62
767,00	1225,48
768,00	1218,73
769,00	1217,27
770,00	1220,27
771,00	1218,04
772,00	1219,23
773,00	1222,70
774,00	1222,80
775,00	1226,16
776,00	1214,15
777,00	1217,81
778,00	1218,03
779,00	1217,01
780,00	1221,64
781,00	1215,96
782,00	1228,34
783,00	1223,68
784,00	1226,82
785,00	1234,65
786,00	1222,33
787,00	1223,81
788,00	1222,19
789,00	1221,57
790,00	1217,60
791,00	1218,12
792,00	1221,56
793,00	1217,51
794,00	1218,94
795,00	1220,48
796,00	1219,84
797,00	1216,59
798,00	1225,14
799,00	1221,10
800,00	1224,09
801,00	1230,53
802,00	1239,36
803,00	1231,07
804,00	1223,42
805,00	1215,59
806,00	1220,66
807,00	1219,09
808,00	1213,34
809,00	1216,22
810,00	1223,89
811,00	1217,20
812,00	1227,00
813,00	1222,27
814,00	1225,83
815,00	1222,42
816,00	1227,55
817,00	1220,91
818,00	1220,24
819,00	1228,99
820,00	1217,11
821,00	1230,37
822,00	1219,54
823,00	1218,50
824,00	1219,25
825,00	1218,90
826,00	1216,02
827,00	1224,03
828,00	1218,62
829,00	1231,35
830,00	1221,83
831,00	1225,92
832,00	1221,75
833,00	1222,54
834,00	1223,15
835,00	1217,57
836,00	1223,15
837,00	1224,10
838,00	1214,86
839,00	1219,36
840,00	1219,41
841,00	1487,34
842,00	1236,52
843,00	1232,91
844,00	1221,32
845,00	1229,38
846,00	1224,42
847,00	1218,79
848,00	1221,68
849,00	1218,06
850,00	1219,71
851,00	1219,77
852,00	1212,59
853,00	1224,47
854,00	1215,75
855,00	1214,27
856,00	1216,92
857,00	1224,62
858,00	1222,71
859,00	1229,94
860,00	1230,55
861,00	1218,13
862,00	1218,09
863,00	1216,21
864,00	1221,92
865,00	1217,14
866,00	1229,62
867,00	1223,81
868,00	1215,46
869,00	1227,85
870,00	1216,30
871,00	1222,95
872,00	1220,27
873,00	1217,16
874,00	1218,83
875,00	1224,44
876,00	1216,85
877,00	1209,25
878,00	1218,21
879,00	1225,56
880,00	1222,95
881,00	1212,20
882,00	1226,03
883,00	1218,01
884,00	1216,39
885,00	1218,89
886,00	1219,04
887,00	1220,01
888,00	1217,91
889,00	1216,50
890,00	1228,80
891,00	1231,40
892,00	1221,90
893,00	1216,90
894,00	1212,33
895,00	1215,78
896,00	1214,87
897,00	1214,05
898,00	1226,39
899,00	1220,27
900,00	1224,44
901,00	1218,61
902,00	1214,05
903,00	1226,10
904,00	1218,27
905,00	1219,74
906,00	1226,14
907,00	1223,66
908,00	1219,80
909,00	1218,33
910,00	1217,42
911,00	1220,02
912,00	1225,38
913,00	1219,50
914,00	1218,58
915,00	1221,13
916,00	1227,86
917,00	1216,59
918,00	1215,08
919,00	1212,36
920,00	1217,41
921,00	1220,36
922,00	1220,82
923,00	1224,02
924,00	1220,63
925,00	1218,45
926,00	1221,05
927,00	1218,64
928,00	1219,92
929,00	1222,60
930,00	1221,25
931,00	1224,84
932,00	1214,86
933,00	1230,71
934,00	1214,37
935,00	1227,53
936,00	1219,95
937,00	1214,91
938,00	1214,37
939,00	1231,76
940,00	1216,75
941,00	1213,77
942,00	1220,71
943,00	1220,46
944,00	1241,70
945,00	1222,54
946,00	1217,09
947,00	1221,43
948,00	1225,93
949,00	1222,70
950,00	1230,00
951,00	1224,04
952,00	1218,57
953,00	1218,20
954,00	1216,40
955,00	1224,99
956,00	1216,32
957,00	1213,72
958,00	1218,07
959,00	1221,46
960,00	1212,33
961,00	1226,81
962,00	1218,33
963,00	1221,10
964,00	1249,33
965,00	1220,34
966,00	1225,56
967,00	1223,78
968,00	1218,10
969,00	1239,78
970,00	1219,36
971,00	1226,05
972,00	1218,85
973,00	1222,03
974,00	1218,09
975,00	1218,16
976,00	1212,04
977,00	1225,03
978,00	1220,98
979,00	1216,88
980,00	1219,38
981,00	1223,60
982,00	1217,87
983,00	1215,89
984,00	1219,34
985,00	1217,31
986,00	1220,33
987,00	1224,46
988,00	1235,16
989,00	1216,73
990,00	1221,49
991,00	1222,08
992,00	1225,74
993,00	1216,35
994,00	1216,27
995,00	1220,45
996,00	1215,61
997,00	1221,92
998,00	1221,51
999,00	1236,10
1000,00	1217,64
1001,00	1221,17
1002,00	1213,59
1003,00	1213,93
1004,00	1227,23
1005,00	1215,01
1006,00	1219,54
1007,00	1223,40
1008,00	1219,48
1009,00	1215,68
1010,00	1218,40
1011,00	1214,76
1012,00	1225,27
1013,00	1215,24
1014,00	1214,78
1015,00	1221,58
1016,00	1221,45
1017,00	1214,52
1018,00	1221,72
1019,00	1221,39
1020,00	1218,25
1021,00	1218,36
1022,00	1222,28
1023,00	1216,76
1024,00	1224,60
1025,00	1215,36
1026,00	1220,75
1027,00	1220,21
1028,00	1230,69
1029,00	1216,71
1030,00	1216,22
1031,00	1214,84
1032,00	1217,47
1033,00	1225,11
1034,00	1217,68
1035,00	1229,59
1036,00	1222,92
1037,00	1219,60
1038,00	1219,11
1039,00	1214,30
1040,00	1219,71
1041,00	1216,88
1042,00	1226,15
1043,00	1223,41
1044,00	1265,22
1045,00	1224,22
1046,00	1217,73
1047,00	1217,25
1048,00	1220,76
1049,00	1219,10
1050,00	1223,21
1051,00	1218,84
1052,00	1224,52
1053,00	1222,53
1054,00	1216,49
1055,00	1226,04
1056,00	1223,08
1057,00	1219,87
1058,00	1220,04
1059,00	1221,86
1060,00	1218,27
1061,00	1220,73
1062,00	1215,50
1063,00	1211,63
1064,00	1225,19
1065,00	1219,65
1066,00	1215,46
1067,00	1222,29
1068,00	1218,64
1069,00	1224,14
1070,00	1224,56
1071,00	1227,90
1072,00	1223,21
1073,00	1218,99
1074,00	1219,29
1075,00	1232,57
1076,00	1216,89
1077,00	1220,20
1078,00	1224,70
1079,00	1215,00
1080,00	1235,51
1081,00	1227,70
1082,00	1219,21
1083,00	1222,58
1084,00	1216,03
1085,00	1229,00
1086,00	1213,89
1087,00	1228,43
1088,00	1223,52
1089,00	1220,92
1090,00	1217,97
1091,00	1226,08
1092,00	1231,37
1093,00	1241,00
1094,00	1224,30
1095,00	1221,64
1096,00	1218,28
1097,00	1221,87
1098,00	1215,31
1099,00	1227,21
1100,00	1220,25
1101,00	1220,19
1102,00	1217,56
1103,00	1227,98
1104,00	1225,00
1105,00	1234,96
1106,00	1219,16
1107,00	1221,05
1108,00	1221,94
1109,00	1216,10
1110,00	1216,48
1111,00	1233,23
1112,00	1225,00
1113,00	1218,06
1114,00	1218,63
1115,00	1213,53
1116,00	1221,35
1117,00	1216,51
1118,00	1216,88
1119,00	1221,34
1120,00	1228,42
1121,00	1258,61
1122,00	1221,65
1123,00	1217,12
1124,00	1227,65
1125,00	1216,20
1126,00	1222,05
1127,00	1222,71
1128,00	1242,51
1129,00	1215,56
1130,00	1216,12
1131,00	1226,68
1132,00	1223,29
1133,00	1223,64
1134,00	1233,11
1135,00	1226,22
1136,00	1231,14
1137,00	1225,25
1138,00	1219,00
1139,00	1221,12
1140,00	1221,03
1141,00	1217,84
1142,00	1215,93
1143,00	1219,94
1144,00	1228,07
1145,00	1235,18
1146,00	1222,17
1147,00	1222,04
1148,00	1217,21
1149,00	1219,36
1150,00	1220,49
1151,00	1226,18
1152,00	1223,98
1153,00	1219,70
1154,00	1225,61
1155,00	1218,26
1156,00	1223,45
1157,00	1223,19
1158,00	1224,96
1159,00	1219,30
1160,00	1215,86
1161,00	1226,16
1162,00	1225,42
1163,00	1217,77
1164,00	1213,62
1165,00	1228,21
1166,00	1228,80
1167,00	1216,18
1168,00	1223,65
1169,00	1218,11
1170,00	1220,07
1171,00	1232,13
1172,00	1220,73
1173,00	1222,43
1174,00	1220,89
1175,00	1216,98
1176,00	1218,24
1177,00	1225,85
1178,00	1237,65
1179,00	1225,82
1180,00	1220,43
1181,00	1223,19
1182,00	1220,63
1183,00	1224,40
1184,00	1219,77
1185,00	1221,02
1186,00	1226,00
1187,00	1223,20
1188,00	1225,57
1189,00	1215,07
1190,00	1219,88
1191,00	1223,46
1192,00	1230,79
1193,00	1219,08
1194,00	1219,12
1195,00	1223,80
1196,00	1231,41
1197,00	1215,89
1198,00	1229,76
1199,00	1227,99
1200,00	1223,09
1201,00	1213,58
1202,00	1222,86
1203,00	1221,14
1204,00	1217,69
1205,00	1219,76
1206,00	1215,22
1207,00	1226,39
1208,00	1222,47
1209,00	1216,54
1210,00	1219,97
1211,00	1224,86
1212,00	1219,39
1213,00	1219,78
1214,00	1215,85
1215,00	1222,72
1216,00	1216,95
1217,00	1222,80
1218,00	1217,95
1219,00	1221,08
1220,00	1219,27
1221,00	1231,44
1222,00	1228,89
1223,00	1217,23
1224,00	1218,33
1225,00	1217,57
1226,00	1216,47
1227,00	1221,75
1228,00	1218,10
1229,00	1218,87
1230,00	1216,60
1231,00	1218,97
1232,00	1216,89
1233,00	1216,20
1234,00	1220,03
1235,00	1215,70
1236,00	1225,61
1237,00	1220,52
1238,00	1221,33
1239,00	1222,72
1240,00	1213,80
1241,00	1219,47
1242,00	1221,93
1243,00	1230,29
1244,00	1214,49
1245,00	1218,29
1246,00	1221,28
1247,00	1228,59
1248,00	1223,50
1249,00	1224,98
1250,00	1218,16
1251,00	1226,31
1252,00	1220,86
1253,00	1230,19
1254,00	1219,56
1255,00	1226,09
1256,00	1220,53
1257,00	1223,70
1258,00	1217,22
1259,00	1214,34
1260,00	1225,67
1261,00	1221,11
1262,00	1216,61
1263,00	1220,43
1264,00	1221,81
1265,00	1215,42
1266,00	1239,77
1267,00	1221,51
1268,00	1216,71
1269,00	1219,99
1270,00	1227,86
1271,00	1217,91
1272,00	1218,45
1273,00	1222,65
1274,00	1217,95
1275,00	1217,81
1276,00	1238,48
1277,00	1296,68
1278,00	1232,52
1279,00	1222,06
1280,00	1219,98
1281,00	1217,94
1282,00	1218,08
1283,00	1216,76
1284,00	1216,21
1285,00	1242,26
1286,00	1215,08
1287,00	1222,37
1288,00	1221,38
1289,00	1239,59
1290,00	1219,33
1291,00	1217,35
1292,00	1223,50
1293,00	1217,97
1294,00	1212,54
1295,00	1217,16
1296,00	1228,66
1297,00	1222,38
1298,00	1222,93
1299,00	1215,30
1300,00	1224,73
1301,00	1230,16
1302,00	1231,54
1303,00	1217,02
1304,00	1236,38
1305,00	1224,56
1306,00	1220,67
1307,00	1222,18
1308,00	1225,67
1309,00	1218,41
1310,00	1219,63
1311,00	1216,98
1312,00	1218,15
1313,00	1217,11
1314,00	1221,40
1315,00	1232,63
1316,00	1215,26
1317,00	1215,86
1318,00	1222,63
1319,00	1224,60
1320,00	1221,52
1321,00	1224,28
1322,00	1277,58
1323,00	1222,61
1324,00	1217,06
1325,00	1215,45
1326,00	1219,27
1327,00	1212,72
1328,00	1226,24
1329,00	1216,56
1330,00	1219,27
1331,00	1221,48
1332,00	1219,55
1333,00	1218,76
1334,00	1213,01
1335,00	1223,58
1336,00	1225,61
1337,00	1224,65
1338,00	1220,30
1339,00	1219,24
1340,00	1223,07
1341,00	1223,49
1342,00	1222,77
1343,00	1229,72
1344,00	1222,31
1345,00	1210,81
1346,00	1217,34
1347,00	1220,47
1348,00	1221,23
1349,00	1216,69
1350,00	1235,05
1351,00	1230,15
1352,00	1222,28
1353,00	1223,15
1354,00	1254,94
1355,00	1218,58
1356,00	1215,13
1357,00	1213,39
1358,00	1221,42
1359,00	1229,17
1360,00	1220,10
1361,00	1216,90
1362,00	1218,94
1363,00	1221,72
1364,00	1227,85
1365,00	1231,51
1366,00	1216,06
1367,00	1216,53
1368,00	1218,80
1369,00	1216,91
1370,00	1227,08
1371,00	1220,36
1372,00	1213,92
1373,00	1233,72
1374,00	1219,32
1375,00	1220,56
1376,00	1223,08
1377,00	1225,05
1378,00	1230,77
1379,00	1221,12
1380,00	1248,76
1381,00	1219,88
1382,00	1216,82
1383,00	1234,90
1384,00	1220,38
1385,00	1224,39
1386,00	1227,96
1387,00	1231,45
1388,00	1223,24
1389,00	1227,67
1390,00	1215,87
1391,00	1217,13
1392,00	1232,56
1393,00	1223,90
1394,00	1221,85
1395,00	1217,26
1396,00	1226,79
1397,00	1216,89
1398,00	1246,05
1399,00	1270,94
1400,00	1228,87
1401,00	1230,75
1402,00	1266,82
1403,00	1224,12
1404,00	1218,44
1405,00	1218,42
1406,00	1219,67
1407,00	1221,39
1408,00	1220,95
1409,00	1217,11
1410,00	1216,36
1411,00	1420,75
1412,00	1231,31
1413,00	1216,74
1414,00	1216,45
1415,00	1217,74
1416,00	1213,94
1417,00	1215,88
1418,00	1223,33
1419,00	1224,88
1420,00	1216,34
1421,00	1213,54
1422,00	1214,21
1423,00	1211,39
1424,00	1222,70
1425,00	1213,95
1426,00	1224,52
1427,00	1220,70
1428,00	1215,52
1429,00	1218,70
1430,00	1213,32
1431,00	1213,62
1432,00	1220,93
1433,00	1217,52
1434,00	1222,80
1435,00	1223,37
1436,00	1217,34
1437,00	1230,30
1438,00	1218,54
1439,00	1218,01
1440,00	1218,52
1441,00	1216,39
1442,00	1215,02
1443,00	1212,29
1444,00	1215,53
1445,00	1215,63
1446,00	1223,74
1447,00	1218,46
1448,00	1221,25
1449,00	1219,25
1450,00	1219,85
1451,00	1214,67
1452,00	1228,51
1453,00	1219,22
1454,00	1228,27
1455,00	1226,33
1456,00	1217,82
1457,00	1228,36
1458,00	1224,51
1459,00	1214,39
1460,00	1218,30
1461,00	1220,66
1462,00	1220,00
1463,00	1222,06
1464,00	1217,96
1465,00	1219,76
1466,00	1216,28
1467,00	1225,40
1468,00	1219,24
1469,00	1215,99
1470,00	1219,29
1471,00	1223,00
1472,00	1223,63
1473,00	1217,59
1474,00	1219,80
1475,00	1216,77
1476,00	1239,25
1477,00	1227,40
1478,00	1265,35
1479,00	1237,66
1480,00	1222,37
1481,00	1217,68
1482,00	1219,24
1483,00	1215,43
1484,00	1224,31
1485,00	1225,68
1486,00	1215,48
1487,00	1222,97
1488,00	1224,04
1489,00	1220,64
1490,00	1224,49
1491,00	1222,14
1492,00	1218,17
1493,00	1215,04
1494,00	1210,88
1495,00	1225,23
1496,00	1216,28
1497,00	1229,88
1498,00	1229,30
1499,00	1223,98
1500,00	1219,40
1501,00	1220,54
1502,00	1213,51
1503,00	1236,37
1504,00	1217,85
1505,00	1228,18
1506,00	1214,22
1507,00	1210,31
1508,00	1219,41
1509,00	1213,31
1510,00	1211,90
1511,00	1222,59
1512,00	1215,98
1513,00	1221,58
1514,00	1217,94
1515,00	1221,52
1516,00	1278,00
1517,00	1233,41
1518,00	1222,30
1519,00	1220,19
1520,00	1225,63
1521,00	1219,29
1522,00	1224,45
1523,00	1218,61
1524,00	1217,58
1525,00	1215,57
1526,00	1216,26
1527,00	1212,05
1528,00	1220,94
1529,00	1213,82
1530,00	1215,99
1531,00	1217,81
1532,00	1214,81
1533,00	1211,06
1534,00	1219,21
1535,00	1212,58
1536,00	1220,33
1537,00	1225,09
1538,00	1224,65
1539,00	1225,57
1540,00	1220,89
1541,00	1224,14
1542,00	1214,27
1543,00	1219,12
1544,00	1225,80
1545,00	1219,75
1546,00	1217,92
1547,00	1221,43
1548,00	1218,05
1549,00	1217,02
1550,00	1216,75
1551,00	1221,40
1552,00	1216,32
1553,00	1212,54
1554,00	1215,30
1555,00	1214,07
1556,00	1215,69
1557,00	1223,13
1558,00	1219,54
1559,00	1214,33
1560,00	1219,02
1561,00	1218,28
1562,00	1226,23
1563,00	1218,56
1564,00	1212,56
1565,00	1219,92
1566,00	1217,79
1567,00	1225,53
1568,00	1219,93
1569,00	1219,16
1570,00	1219,28
1571,00	1220,63
1572,00	1223,26
1573,00	1220,02
1574,00	1229,48
1575,00	1216,22
1576,00	1213,45
1577,00	1213,96
1578,00	1223,51
1579,00	1218,82
1580,00	1215,99
1581,00	1215,61
1582,00	1214,57
1583,00	1228,83
1584,00	1217,57
1585,00	1211,76
1586,00	1219,27
1587,00	1222,87
1588,00	1227,49
1589,00	1216,86
1590,00	1220,34
1591,00	1218,66
1592,00	1234,54
1593,00	1214,80
1594,00	1219,21
1595,00	1214,01
1596,00	1216,35
1597,00	1213,67
1598,00	1218,75
1599,00	1216,53
1600,00	1211,97
1601,00	1221,94
1602,00	1229,61
1603,00	1221,66
1604,00	1216,65
1605,00	1234,12
1606,00	1216,99
1607,00	1220,19
1608,00	1218,31
1609,00	1218,06
1610,00	1211,02
1611,00	1227,06
1612,00	1215,94
1613,00	1219,40
1614,00	1216,93
1615,00	1216,10
1616,00	1223,06
1617,00	1216,75
1618,00	1223,08
1619,00	1216,71
1620,00	1228,44
1621,00	1224,19
1622,00	1217,81
1623,00	1226,92
1624,00	1224,06
1625,00	1219,40
1626,00	1235,68
1627,00	1219,37
1628,00	1218,09
1629,00	1264,45
1630,00	1223,13
1631,00	1219,06
1632,00	1225,94
1633,00	1217,26
1634,00	1220,08
1635,00	1216,47
1636,00	1214,30
1637,00	1219,37
1638,00	1213,96
1639,00	1214,96
1640,00	1219,33
1641,00	1229,36
1642,00	1228,03
1643,00	1213,72
1644,00	1233,66
1645,00	1224,80
1646,00	1218,77
1647,00	1224,03
1648,00	1221,88
1649,00	1220,81
1650,00	1239,88
1651,00	1228,23
1652,00	1216,63
1653,00	1219,35
1654,00	1221,35
1655,00	1220,75
1656,00	1216,85
1657,00	1231,29
1658,00	1216,76
1659,00	1221,57
1660,00	1224,84
1661,00	1227,63
1662,00	1221,38
1663,00	1225,45
1664,00	1223,64
1665,00	1216,66
1666,00	1220,57
1667,00	1233,76
1668,00	1217,24
1669,00	1215,05
1670,00	1225,55
1671,00	1212,28
1672,00	1213,94
1673,00	1225,22
1674,00	1221,16
1675,00	1223,94
1676,00	1220,55
1677,00	1220,41
1678,00	1222,30
1679,00	1219,15
1680,00	1219,72
1681,00	1219,91
1682,00	1239,08
1683,00	1224,35
1684,00	1228,01
1685,00	1222,78
1686,00	1212,84
1687,00	1212,94
1688,00	1228,12
1689,00	1217,87
1690,00	1212,43
1691,00	1214,69
1692,00	1216,38
1693,00	1226,86
1694,00	1213,77
1695,00	1221,40
1696,00	1216,85
1697,00	1221,00
1698,00	1215,92
1699,00	1219,85
1700,00	1224,03
1701,00	1225,19
1702,00	1216,29
1703,00	1216,20
1704,00	1212,94
1705,00	1220,59
1706,00	1216,77
1707,00	1216,24
1708,00	1215,60
1709,00	1222,27
1710,00	1217,38
1711,00	1213,71
1712,00	1221,09
1713,00	1231,94
1714,00	1221,74
1715,00	1217,43
1716,00	1229,32
1717,00	1221,51
1718,00	1232,49
1719,00	1225,13
1720,00	1218,12
1721,00	1220,65
1722,00	1218,38
1723,00	1227,53
1724,00	1219,78
1725,00	1220,66
1726,00	1221,32
1727,00	1214,64
1728,00	1227,95
1729,00	1213,76
1730,00	1234,95
1731,00	1223,47
1732,00	1236,83
1733,00	1220,56
1734,00	1216,51
1735,00	1219,16
1736,00	1216,01
1737,00	1213,89
1738,00	1220,58
1739,00	1226,32
1740,00	1224,91
1741,00	1236,54
1742,00	1221,06
1743,00	1214,62
1744,00	1215,23
1745,00	1215,75
1746,00	1216,16
1747,00	1220,21
1748,00	1222,76
1749,00	1232,33
1750,00	1225,17
1751,00	1239,25
1752,00	1219,17
1753,00	1213,50
1754,00	1216,82
1755,00	1220,33
1756,00	1217,78
1757,00	1228,79
1758,00	1215,84
1759,00	1213,71
1760,00	1216,10
1761,00	1222,82
1762,00	1218,50
1763,00	1215,18
1764,00	1223,23
1765,00	1217,95
1766,00	1215,99
1767,00	1216,10
1768,00	1216,77
1769,00	1220,11
1770,00	1216,03
1771,00	1217,84
1772,00	1232,05
1773,00	1214,99
1774,00	1215,13
1775,00	1217,65
1776,00	1217,69
1777,00	1211,81
1778,00	1213,70
1779,00	1214,06
1780,00	1214,09
1781,00	1214,71
1782,00	1213,51
1783,00	1222,14
1784,00	1221,36
1785,00	1219,36
1786,00	1223,25
1787,00	1216,06
1788,00	1220,76
1789,00	1223,02
1790,00	1229,52
1791,00	1216,80
1792,00	1221,11
1793,00	1217,68
1794,00	1214,96
1795,00	1214,82
1796,00	1216,17
1797,00	1210,56
1798,00	1216,59
1799,00	1216,08
1800,00	1223,55
1801,00	1219,47
1802,00	1226,83
1803,00	1219,74
1804,00	1223,81
1805,00	1218,04
1806,00	1223,52
1807,00	1222,88
1808,00	1213,79
1809,00	1217,87
1810,00	1223,92
1811,00	1218,17
1812,00	1215,00
1813,00	1214,76
1814,00	1217,79
1815,00	1221,07
1816,00	1241,36
1817,00	1219,64
1818,00	1256,84
1819,00	1230,94
1820,00	1222,28
1821,00	1215,53
1822,00	1211,45
1823,00	1217,95
1824,00	1221,28
1825,00	1230,82
1826,00	1215,46
1827,00	1230,85
1828,00	1234,21
1829,00	1220,47
1830,00	1223,98
1831,00	1216,06
1832,00	1210,75
1833,00	1210,87
1834,00	1214,37
1835,00	1219,46
1836,00	1213,96
1837,00	1215,96
1838,00	1220,63
1839,00	1228,01
1840,00	1239,13
1841,00	1220,93
1842,00	1224,11
1843,00	1223,16
1844,00	1234,74
1845,00	1224,19
1846,00	1215,99
1847,00	1217,92
1848,00	1224,45
1849,00	1217,82
1850,00	1220,65
1851,00	1225,09
1852,00	1215,46
1853,00	1212,58
1854,00	1216,15
1855,00	1214,50
1856,00	1215,85
1857,00	1216,69
1858,00	1232,42
1859,00	1213,43
1860,00	1221,68
1861,00	1251,04
1862,00	1218,75
1863,00	1219,51
1864,00	1213,24
1865,00	1220,14
1866,00	1222,72
1867,00	1216,67
1868,00	1220,60
1869,00	1215,07
1870,00	1217,78
1871,00	1214,86
1872,00	1220,77
1873,00	1218,17
1874,00	1223,73
1875,00	1219,06
1876,00	1213,26
1877,00	1219,94
1878,00	1228,27
1879,00	1224,58
1880,00	1215,70
1881,00	1222,38
1882,00	1215,62
1883,00	1214,93
1884,00	1216,92
1885,00	1221,14
1886,00	1222,15
1887,00	1214,42
1888,00	1215,53
1889,00	1218,24
1890,00	1212,74
1891,00	1221,25
1892,00	1229,00
1893,00	1214,69
1894,00	1221,18
1895,00	1219,49
1896,00	1226,94
1897,00	1243,32
1898,00	1214,82
1899,00	1220,53
1900,00	1217,53
1901,00	1222,04
1902,00	1219,80
1903,00	1233,23
1904,00	1220,59
1905,00	1260,23
1906,00	1217,25
1907,00	1213,72
1908,00	1253,91
1909,00	1217,29
1910,00	1220,26
1911,00	1222,66
1912,00	1224,46
1913,00	1233,18
1914,00	1218,74
1915,00	1217,64
1916,00	1222,13
1917,00	1220,74
1918,00	1220,33
1919,00	1220,60
1920,00	1215,10
1921,00	1227,38
1922,00	1219,38
1923,00	1221,06
1924,00	1220,27
1925,00	1213,46
1926,00	1218,11
1927,00	1224,84
1928,00	1229,34
1929,00	1224,78
1930,00	1216,49
1931,00	1222,42
1932,00	1241,04
1933,00	1222,55
1934,00	1214,76
1935,00	1216,10
1936,00	1218,97
1937,00	1216,60
1938,00	1220,09
1939,00	1217,28
1940,00	1234,34
1941,00	1217,11
1942,00	1215,23
1943,00	1217,00
1944,00	1221,10
1945,00	1216,95
1946,00	1212,34
1947,00	1210,32
1948,00	1235,07
1949,00	1214,56
1950,00	1223,41
1951,00	1214,96
1952,00	1215,57
1953,00	1213,60
1954,00	1221,48
1955,00	1215,55
1956,00	1217,13
1957,00	1219,29
1958,00	1211,97
1959,00	1215,66
1960,00	1212,68
1961,00	1227,70
1962,00	1214,02
1963,00	1223,17
1964,00	1214,38
1965,00	1226,80
1966,00	1217,04
1967,00	1226,06
1968,00	1215,11
1969,00	1214,85
1970,00	1218,46
1971,00	1226,20
1972,00	1216,14
1973,00	1222,30
1974,00	1219,07
1975,00	1224,77
1976,00	1221,30
1977,00	1221,37
1978,00	1221,43
1979,00	1222,60
1980,00	1258,96
1981,00	1219,35
1982,00	1213,28
1983,00	1217,41
1984,00	1219,30
1985,00	1230,57
1986,00	1215,35
1987,00	1215,09
1988,00	1218,28
1989,00	1219,69
1990,00	1233,78
1991,00	1222,84
1992,00	1223,70
1993,00	1241,22
1994,00	1223,24
1995,00	1214,09
1996,00	1220,96
1997,00	1219,24
1998,00	1221,84
1999,00	1214,34
2000,00	1213,17
2001,00	1216,48
2002,00	1229,72
2003,00	1213,14
2004,00	1223,13
2005,00	1213,71
2006,00	1229,45
2007,00	1217,55
2008,00	1212,68
2009,00	1230,98
2010,00	1215,93
2011,00	1212,38
2012,00	1217,47
2013,00	1216,39
2014,00	1216,82
2015,00	1213,00
2016,00	1218,17
2017,00	1216,41
2018,00	1217,00
2019,00	1215,92
2020,00	1217,48
2021,00	1224,25
2022,00	1218,23
2023,00	1216,64
2024,00	1214,17
2025,00	1227,94
2026,00	1215,40
2027,00	1213,75
2028,00	1221,97
2029,00	1214,71
2030,00	1214,77
2031,00	1214,87
2032,00	1211,29
2033,00	1220,34
2034,00	1228,92
2035,00	1221,61
2036,00	1219,36
2037,00	1214,17
2038,00	1217,30
2039,00	1215,91
2040,00	1221,53
2041,00	1218,23
2042,00	1214,68
2043,00	1218,31
2044,00	1221,37
2045,00	1214,00
2046,00	1214,00
2047,00	1214,00
>>>>>End Processed Spectral Data<<<<<
