SpectraSuite Datei
++++++++++++++++++++++++++++++++++++
Datum: Thu Sep 19 14:21:15 CEST 2024
Benutzer: Student
Dark-Spektrum vorhanden: Nein
Referenz-Spektrum vorhanden: Nein
Zahl der probierten Teilspektren: 1
Spektrometer: USB2+H15728
Integrationszeit (usec): 500000 (USB2+H15728)
Spektren Durchschnitt berechnet: 500 (USB2+H15728)
Boxcar Glättung: 0 (USB2+H15728)
Dunkelstromkorrektur: Nein (USB2+H15728)
Puls/Lampe aktiviert: Nein (USB2+H15728)
Correct for Detector Non-linearity: Nein (USB2+H15728)
Streulichtkorrektur: Nein (USB2+H15728)
Anzahl Pixel in verarbeitetem Spektrum: 2048
>>>>>Begin Processed Spectral Data<<<<<
0,00	1010,63
1,00	1010,63
2,00	1010,63
3,00	980,46
4,00	1039,28
5,00	1036,23
6,00	1029,65
7,00	1040,84
8,00	1096,27
9,00	1075,34
10,00	1087,75
11,00	1136,85
12,00	1099,50
13,00	1240,84
14,00	1133,64
15,00	1166,37
16,00	1173,37
17,00	1242,90
18,00	1205,47
19,00	1289,95
20,00	1234,46
21,00	1250,01
22,00	1280,90
23,00	1320,05
24,00	1289,64
25,00	1317,76
26,00	1344,26
27,00	1390,30
28,00	1351,39
29,00	1357,55
30,00	1388,74
31,00	1377,64
32,00	1468,63
33,00	1382,22
34,00	1405,84
35,00	1411,60
36,00	1408,35
37,00	1378,41
38,00	1402,78
39,00	1484,91
40,00	1387,23
41,00	1451,06
42,00	1404,58
43,00	1432,52
44,00	1388,94
45,00	1392,60
46,00	1377,07
47,00	1425,34
48,00	1387,06
49,00	1460,22
50,00	1393,33
51,00	1413,28
52,00	1387,70
53,00	1462,41
54,00	1392,62
55,00	1380,20
56,00	1439,05
57,00	1387,74
58,00	1381,40
59,00	1386,66
60,00	1345,17
61,00	1380,71
62,00	1367,16
63,00	1353,64
64,00	1360,18
65,00	1348,51
66,00	1363,21
67,00	1359,19
68,00	1362,77
69,00	1356,02
70,00	1618,18
71,00	1386,85
72,00	1364,20
73,00	1359,10
74,00	1361,28
75,00	1351,67
76,00	1349,07
77,00	1382,23
78,00	1363,99
79,00	1366,48
80,00	1367,21
81,00	1338,73
82,00	1387,52
83,00	1340,79
84,00	1454,66
85,00	1388,85
86,00	1483,09
87,00	1457,37
88,00	1350,72
89,00	1338,65
90,00	1367,30
91,00	1435,24
92,00	1379,73
93,00	1395,58
94,00	1357,02
95,00	1350,79
96,00	1357,38
97,00	1578,90
98,00	1368,17
99,00	1357,41
100,00	1383,08
101,00	1404,06
102,00	1359,25
103,00	1362,61
104,00	1359,34
105,00	1413,76
106,00	1388,21
107,00	1398,03
108,00	1398,97
109,00	1374,58
110,00	1463,43
111,00	1411,47
112,00	1368,53
113,00	1403,69
114,00	1368,37
115,00	1371,51
116,00	1373,58
117,00	1360,88
118,00	1377,56
119,00	1474,29
120,00	1375,41
121,00	1358,85
122,00	1384,59
123,00	1357,32
124,00	1360,24
125,00	1361,74
126,00	1383,60
127,00	1396,66
128,00	1375,81
129,00	1402,81
130,00	1386,32
131,00	1410,46
132,00	1369,43
133,00	1420,25
134,00	1384,98
135,00	1370,72
136,00	1359,75
137,00	1410,61
138,00	1463,51
139,00	1398,58
140,00	1390,90
141,00	1429,88
142,00	1383,34
143,00	1362,52
144,00	1384,51
145,00	1374,37
146,00	1381,82
147,00	1444,37
148,00	1598,55
149,00	1422,48
150,00	1357,46
151,00	1406,26
152,00	1362,17
153,00	1370,20
154,00	1371,77
155,00	1360,28
156,00	1417,03
157,00	1372,20
158,00	1397,53
159,00	1420,25
160,00	1417,46
161,00	1434,31
162,00	1362,66
163,00	1373,18
164,00	1364,37
165,00	1357,46
166,00	1373,33
167,00	1400,67
168,00	1358,45
169,00	1370,15
170,00	1379,38
171,00	1350,60
172,00	1424,03
173,00	1354,07
174,00	1371,47
175,00	1378,66
176,00	1377,38
177,00	1377,78
178,00	1397,90
179,00	1366,55
180,00	1402,77
181,00	1372,13
182,00	1365,06
183,00	1481,65
184,00	1358,73
185,00	1362,66
186,00	1354,99
187,00	1379,30
188,00	1421,43
189,00	1378,85
190,00	1356,98
191,00	1363,84
192,00	1397,14
193,00	1363,24
194,00	1380,21
195,00	1405,25
196,00	1416,75
197,00	1394,34
198,00	1468,31
199,00	1370,92
200,00	1357,36
201,00	1414,21
202,00	1393,55
203,00	1392,81
204,00	1382,88
205,00	1396,86
206,00	1379,32
207,00	1385,26
208,00	1395,69
209,00	1388,75
210,00	1411,05
211,00	1414,38
212,00	1361,67
213,00	1388,94
214,00	1403,88
215,00	1386,79
216,00	1382,63
217,00	1388,89
218,00	1437,09
219,00	1376,70
220,00	1460,93
221,00	1396,24
222,00	1416,12
223,00	1384,28
224,00	1392,89
225,00	1357,50
226,00	1391,81
227,00	1367,20
228,00	1374,32
229,00	1390,28
230,00	1372,14
231,00	1408,50
232,00	1402,90
233,00	1385,20
234,00	1392,76
235,00	1390,61
236,00	1464,09
237,00	1389,24
238,00	1369,61
239,00	1368,77
240,00	1406,63
241,00	1416,02
242,00	1374,66
243,00	1420,02
244,00	1385,02
245,00	1364,04
246,00	1365,75
247,00	1390,56
248,00	1406,91
249,00	1424,65
250,00	1431,53
251,00	1382,87
252,00	1419,94
253,00	1391,14
254,00	1416,40
255,00	1368,57
256,00	1402,14
257,00	1404,61
258,00	1383,36
259,00	1382,20
260,00	1365,30
261,00	1385,69
262,00	1356,52
263,00	1363,46
264,00	1397,54
265,00	1389,88
266,00	1373,64
267,00	1380,50
268,00	1405,05
269,00	1396,64
270,00	1391,47
271,00	1419,78
272,00	1408,53
273,00	1383,63
274,00	1378,79
275,00	1387,53
276,00	1368,11
277,00	1391,03
278,00	1383,58
279,00	1403,77
280,00	1371,40
281,00	1388,17
282,00	1366,78
283,00	1401,97
284,00	1390,78
285,00	1391,91
286,00	1413,49
287,00	1388,75
288,00	1364,59
289,00	1378,24
290,00	1427,37
291,00	1374,15
292,00	1417,30
293,00	1383,41
294,00	1402,73
295,00	1397,41
296,00	1368,05
297,00	1366,62
298,00	1395,78
299,00	1393,13
300,00	1391,29
301,00	1399,51
302,00	1385,77
303,00	1416,29
304,00	1375,13
305,00	1416,69
306,00	1389,71
307,00	1369,66
308,00	1389,66
309,00	1391,72
310,00	1382,73
311,00	1372,18
312,00	1389,39
313,00	1440,90
314,00	1413,44
315,00	1373,72
316,00	1394,88
317,00	1365,42
318,00	1365,87
319,00	1398,42
320,00	1383,73
321,00	1370,61
322,00	1365,19
323,00	1428,54
324,00	1386,56
325,00	1418,85
326,00	1366,15
327,00	1389,84
328,00	1406,83
329,00	1415,35
330,00	1384,93
331,00	1380,89
332,00	1370,54
333,00	1409,36
334,00	1389,70
335,00	1392,16
336,00	1404,56
337,00	1388,43
338,00	1421,10
339,00	1368,39
340,00	1364,53
341,00	1376,54
342,00	1368,95
343,00	1437,87
344,00	1481,45
345,00	1381,71
346,00	1367,70
347,00	1407,31
348,00	1360,43
349,00	1447,03
350,00	1387,09
351,00	1362,93
352,00	1471,10
353,00	1415,71
354,00	1361,83
355,00	1381,00
356,00	1390,24
357,00	1426,16
358,00	1372,46
359,00	1375,24
360,00	1396,15
361,00	1381,68
362,00	1431,57
363,00	1409,26
364,00	1432,65
365,00	1384,97
366,00	1396,93
367,00	1374,44
368,00	1379,68
369,00	1380,81
370,00	1368,00
371,00	1367,52
372,00	1444,27
373,00	1378,32
374,00	1386,19
375,00	1381,21
376,00	1369,34
377,00	1672,51
378,00	1392,78
379,00	1375,73
380,00	1367,94
381,00	1471,82
382,00	1414,51
383,00	1381,10
384,00	1371,07
385,00	1368,73
386,00	1394,71
387,00	1393,63
388,00	1404,11
389,00	1432,38
390,00	1407,57
391,00	1394,21
392,00	1374,79
393,00	1392,90
394,00	1390,88
395,00	1384,13
396,00	1408,33
397,00	1374,28
398,00	1407,84
399,00	1380,07
400,00	1414,71
401,00	1376,51
402,00	1381,85
403,00	1378,65
404,00	1395,93
405,00	1414,74
406,00	1376,91
407,00	1420,77
408,00	1383,39
409,00	1429,22
410,00	1401,61
411,00	1381,97
412,00	1370,15
413,00	1363,92
414,00	1463,03
415,00	1409,55
416,00	1435,39
417,00	1384,83
418,00	1377,34
419,00	1386,41
420,00	1410,80
421,00	1387,44
422,00	1408,67
423,00	1372,52
424,00	1367,03
425,00	1374,20
426,00	1367,89
427,00	1381,41
428,00	1380,56
429,00	1370,33
430,00	1371,48
431,00	1379,52
432,00	1371,90
433,00	1367,37
434,00	1424,38
435,00	1413,06
436,00	1448,85
437,00	1395,67
438,00	1388,48
439,00	1383,17
440,00	1401,44
441,00	1383,38
442,00	1416,76
443,00	1380,89
444,00	1378,03
445,00	1381,66
446,00	1407,91
447,00	1382,99
448,00	1446,03
449,00	1387,39
450,00	1363,76
451,00	1457,45
452,00	1436,32
453,00	1384,99
454,00	1406,66
455,00	1381,63
456,00	1387,50
457,00	1538,99
458,00	1383,53
459,00	1377,20
460,00	1372,14
461,00	1369,73
462,00	1364,63
463,00	1381,35
464,00	1391,56
465,00	1369,48
466,00	1397,55
467,00	1393,91
468,00	1377,85
469,00	1405,99
470,00	1434,40
471,00	1395,40
472,00	1446,45
473,00	1368,77
474,00	1370,42
475,00	1400,11
476,00	1370,10
477,00	1374,76
478,00	1415,70
479,00	1398,79
480,00	1392,94
481,00	1359,86
482,00	1388,37
483,00	1446,68
484,00	1385,99
485,00	1439,44
486,00	1367,47
487,00	1384,33
488,00	1406,57
489,00	1377,83
490,00	1408,37
491,00	1409,29
492,00	1396,66
493,00	1373,26
494,00	1396,80
495,00	1439,12
496,00	1398,62
497,00	1375,35
498,00	1396,88
499,00	1359,03
500,00	1365,25
501,00	1375,00
502,00	1403,84
503,00	1390,66
504,00	1395,57
505,00	1406,71
506,00	1429,84
507,00	1441,38
508,00	1429,67
509,00	1368,92
510,00	1382,80
511,00	1413,78
512,00	1393,05
513,00	1427,90
514,00	1512,79
515,00	1381,88
516,00	1393,24
517,00	1380,63
518,00	1384,06
519,00	1440,21
520,00	1436,31
521,00	1364,39
522,00	1406,44
523,00	1477,59
524,00	1412,67
525,00	1372,58
526,00	1372,32
527,00	1386,19
528,00	1405,85
529,00	1406,15
530,00	1386,57
531,00	1391,47
532,00	1360,00
533,00	1407,65
534,00	1377,76
535,00	1407,01
536,00	1413,99
537,00	1408,16
538,00	1440,82
539,00	1404,56
540,00	1370,14
541,00	1422,27
542,00	1370,81
543,00	1401,84
544,00	1407,69
545,00	1385,79
546,00	1367,12
547,00	1421,82
548,00	1390,48
549,00	1366,53
550,00	1384,01
551,00	1389,70
552,00	1508,10
553,00	1422,74
554,00	1411,31
555,00	1422,95
556,00	1378,32
557,00	1400,82
558,00	1367,11
559,00	1380,82
560,00	1436,61
561,00	1443,83
562,00	1415,55
563,00	1385,38
564,00	1400,85
565,00	1407,34
566,00	1393,65
567,00	1410,70
568,00	1401,60
569,00	1384,38
570,00	1400,93
571,00	1398,63
572,00	1372,61
573,00	1389,81
574,00	1383,06
575,00	1409,10
576,00	1432,21
577,00	1400,45
578,00	1372,83
579,00	1370,67
580,00	1390,15
581,00	1402,69
582,00	1378,29
583,00	1375,78
584,00	1367,06
585,00	1425,08
586,00	1375,68
587,00	1390,22
588,00	1378,21
589,00	1381,47
590,00	1421,17
591,00	1371,51
592,00	1403,76
593,00	1397,77
594,00	1378,80
595,00	1391,23
596,00	1414,83
597,00	1401,60
598,00	1364,57
599,00	1398,30
600,00	1396,28
601,00	2992,53
602,00	1506,24
603,00	1405,03
604,00	1395,04
605,00	1398,97
606,00	1393,49
607,00	1384,99
608,00	1394,19
609,00	1398,81
610,00	1389,27
611,00	1370,18
612,00	1409,15
613,00	1378,02
614,00	1410,19
615,00	1399,10
616,00	1405,44
617,00	1433,06
618,00	1404,79
619,00	1368,34
620,00	1382,31
621,00	1400,37
622,00	1375,25
623,00	1395,37
624,00	1368,25
625,00	1480,96
626,00	1374,32
627,00	1425,89
628,00	1389,08
629,00	1413,12
630,00	1382,78
631,00	1371,21
632,00	1402,09
633,00	1373,16
634,00	1390,62
635,00	1436,08
636,00	1396,13
637,00	1382,22
638,00	1371,64
639,00	1388,60
640,00	1401,48
641,00	1390,18
642,00	1408,25
643,00	1390,27
644,00	1376,50
645,00	1393,93
646,00	1368,42
647,00	1371,46
648,00	1371,97
649,00	1387,20
650,00	1384,23
651,00	1383,20
652,00	1397,85
653,00	1383,19
654,00	1383,46
655,00	1376,11
656,00	1414,85
657,00	1389,32
658,00	1421,88
659,00	1409,36
660,00	1577,91
661,00	1430,99
662,00	1396,80
663,00	1405,50
664,00	1414,47
665,00	1382,89
666,00	1437,42
667,00	1375,15
668,00	1364,64
669,00	1416,87
670,00	1405,87
671,00	1396,85
672,00	1381,60
673,00	1420,20
674,00	1399,28
675,00	1376,40
676,00	1436,36
677,00	1394,96
678,00	1375,50
679,00	1393,39
680,00	1380,12
681,00	1377,30
682,00	1399,40
683,00	1381,49
684,00	1379,29
685,00	1393,88
686,00	1396,72
687,00	1420,21
688,00	1372,73
689,00	1445,28
690,00	1437,57
691,00	1384,67
692,00	1386,50
693,00	1387,56
694,00	1368,24
695,00	1430,41
696,00	1402,64
697,00	1382,20
698,00	1405,93
699,00	1548,21
700,00	1394,95
701,00	1436,87
702,00	1434,89
703,00	1388,91
704,00	1433,78
705,00	1396,74
706,00	1422,18
707,00	1394,92
708,00	1427,45
709,00	1386,32
710,00	1381,12
711,00	1416,57
712,00	1386,85
713,00	1389,23
714,00	1386,50
715,00	1383,18
716,00	1407,62
717,00	1399,70
718,00	1380,02
719,00	1376,79
720,00	1428,07
721,00	1410,03
722,00	1395,25
723,00	1489,79
724,00	1414,36
725,00	1421,43
726,00	1400,82
727,00	1383,76
728,00	1396,14
729,00	1482,31
730,00	1384,12
731,00	1401,59
732,00	1395,98
733,00	1370,62
734,00	1435,36
735,00	1392,16
736,00	1377,95
737,00	1372,77
738,00	1376,71
739,00	1386,52
740,00	1391,09
741,00	1419,27
742,00	1499,67
743,00	1403,98
744,00	1395,44
745,00	1367,47
746,00	1391,80
747,00	1392,23
748,00	1428,02
749,00	1434,89
750,00	1385,49
751,00	1383,29
752,00	1416,01
753,00	1415,07
754,00	1382,70
755,00	1406,02
756,00	1395,94
757,00	1410,14
758,00	1377,71
759,00	1372,99
760,00	1385,94
761,00	1373,33
762,00	1386,39
763,00	1427,02
764,00	1379,89
765,00	1425,69
766,00	1390,57
767,00	1414,62
768,00	1377,41
769,00	1374,97
770,00	1401,39
771,00	1385,59
772,00	1387,47
773,00	1401,66
774,00	1403,63
775,00	1421,73
776,00	1381,50
777,00	1384,18
778,00	1388,86
779,00	1381,03
780,00	1393,45
781,00	1370,00
782,00	1423,53
783,00	1392,60
784,00	1423,49
785,00	1466,67
786,00	1400,09
787,00	1400,04
788,00	1404,13
789,00	1397,67
790,00	1392,29
791,00	1389,59
792,00	1390,89
793,00	1381,34
794,00	1377,82
795,00	1384,90
796,00	1389,74
797,00	1384,25
798,00	1407,32
799,00	1388,72
800,00	1415,18
801,00	1427,50
802,00	1482,90
803,00	1435,56
804,00	1409,43
805,00	1387,82
806,00	1401,22
807,00	1384,88
808,00	1374,04
809,00	1373,02
810,00	1404,70
811,00	1377,17
812,00	1417,27
813,00	1393,06
814,00	1416,23
815,00	1396,85
816,00	1430,02
817,00	1408,34
818,00	1386,77
819,00	1417,72
820,00	1379,42
821,00	1433,45
822,00	1389,76
823,00	1381,94
824,00	1391,86
825,00	1390,55
826,00	1365,81
827,00	1412,93
828,00	1382,42
829,00	1444,63
830,00	1393,55
831,00	1418,48
832,00	1381,90
833,00	1393,94
834,00	1407,57
835,00	1372,88
836,00	1413,49
837,00	1405,29
838,00	1374,74
839,00	1389,37
840,00	1382,16
841,00	2777,56
842,00	1482,17
843,00	1453,36
844,00	1411,32
845,00	1449,83
846,00	1408,16
847,00	1383,71
848,00	1398,79
849,00	1394,25
850,00	1401,86
851,00	1371,65
852,00	1362,86
853,00	1411,60
854,00	1379,68
855,00	1377,35
856,00	1377,40
857,00	1413,18
858,00	1389,99
859,00	1434,63
860,00	1429,33
861,00	1388,61
862,00	1389,22
863,00	1378,84
864,00	1408,94
865,00	1381,15
866,00	1430,60
867,00	1411,88
868,00	1373,85
869,00	1424,08
870,00	1376,20
871,00	1403,35
872,00	1388,89
873,00	1373,21
874,00	1374,24
875,00	1398,90
876,00	1392,17
877,00	1364,37
878,00	1388,87
879,00	1415,04
880,00	1407,77
881,00	1369,69
882,00	1431,41
883,00	1382,96
884,00	1369,35
885,00	1394,64
886,00	1391,27
887,00	1402,01
888,00	1382,41
889,00	1376,02
890,00	1425,11
891,00	1453,62
892,00	1401,84
893,00	1370,32
894,00	1361,30
895,00	1376,44
896,00	1385,57
897,00	1365,69
898,00	1406,90
899,00	1377,46
900,00	1410,76
901,00	1378,47
902,00	1367,36
903,00	1395,25
904,00	1385,07
905,00	1394,34
906,00	1414,69
907,00	1397,74
908,00	1388,79
909,00	1380,16
910,00	1389,46
911,00	1396,10
912,00	1406,75
913,00	1398,17
914,00	1388,77
915,00	1393,28
916,00	1420,67
917,00	1384,33
918,00	1363,52
919,00	1366,82
920,00	1381,53
921,00	1389,78
922,00	1402,34
923,00	1409,63
924,00	1398,44
925,00	1390,19
926,00	1400,29
927,00	1396,96
928,00	1389,75
929,00	1397,95
930,00	1387,04
931,00	1416,69
932,00	1379,76
933,00	1440,78
934,00	1373,50
935,00	1427,74
936,00	1395,94
937,00	1379,11
938,00	1369,68
939,00	1436,63
940,00	1368,46
941,00	1367,87
942,00	1390,94
943,00	1384,88
944,00	1481,47
945,00	1395,30
946,00	1375,76
947,00	1398,41
948,00	1408,91
949,00	1393,20
950,00	1428,10
951,00	1399,49
952,00	1382,80
953,00	1371,15
954,00	1377,57
955,00	1412,27
956,00	1376,03
957,00	1371,74
958,00	1388,21
959,00	1398,00
960,00	1362,43
961,00	1416,58
962,00	1382,73
963,00	1405,05
964,00	1519,99
965,00	1396,48
966,00	1405,30
967,00	1412,25
968,00	1375,43
969,00	1471,37
970,00	1393,42
971,00	1419,76
972,00	1387,10
973,00	1411,03
974,00	1379,16
975,00	1384,31
976,00	1365,41
977,00	1416,40
978,00	1398,68
979,00	1379,20
980,00	1376,60
981,00	1405,96
982,00	1375,83
983,00	1361,43
984,00	1376,19
985,00	1377,92
986,00	1389,69
987,00	1417,92
988,00	1466,83
989,00	1376,63
990,00	1389,83
991,00	1398,62
992,00	1408,15
993,00	1376,30
994,00	1377,31
995,00	1396,20
996,00	1375,12
997,00	1412,23
998,00	1394,11
999,00	1456,30
1000,00	1366,66
1001,00	1401,58
1002,00	1373,30
1003,00	1370,59
1004,00	1427,56
1005,00	1370,46
1006,00	1378,55
1007,00	1405,27
1008,00	1382,35
1009,00	1375,14
1010,00	1378,64
1011,00	1373,38
1012,00	1420,12
1013,00	1368,98
1014,00	1378,14
1015,00	1401,21
1016,00	1400,88
1017,00	1371,84
1018,00	1416,44
1019,00	1409,45
1020,00	1384,25
1021,00	1379,46
1022,00	1397,88
1023,00	1375,77
1024,00	1412,83
1025,00	1371,75
1026,00	1386,87
1027,00	1385,17
1028,00	1429,75
1029,00	1380,06
1030,00	1372,07
1031,00	1373,36
1032,00	1373,19
1033,00	1412,27
1034,00	1385,50
1035,00	1424,10
1036,00	1398,11
1037,00	1399,35
1038,00	1391,49
1039,00	1369,29
1040,00	1388,14
1041,00	1383,60
1042,00	1419,84
1043,00	1405,73
1044,00	1581,87
1045,00	1415,03
1046,00	1376,29
1047,00	1372,64
1048,00	1404,96
1049,00	1391,31
1050,00	1401,83
1051,00	1390,75
1052,00	1402,84
1053,00	1403,36
1054,00	1374,29
1055,00	1413,93
1056,00	1421,77
1057,00	1386,96
1058,00	1389,33
1059,00	1403,76
1060,00	1387,61
1061,00	1391,40
1062,00	1371,30
1063,00	1359,93
1064,00	1422,67
1065,00	1384,07
1066,00	1365,84
1067,00	1401,28
1068,00	1389,23
1069,00	1405,89
1070,00	1409,96
1071,00	1425,06
1072,00	1400,56
1073,00	1395,99
1074,00	1383,77
1075,00	1456,61
1076,00	1380,20
1077,00	1384,48
1078,00	1394,45
1079,00	1370,87
1080,00	1460,12
1081,00	1427,50
1082,00	1382,54
1083,00	1410,80
1084,00	1388,77
1085,00	1423,54
1086,00	1367,80
1087,00	1417,77
1088,00	1408,04
1089,00	1389,88
1090,00	1383,53
1091,00	1425,97
1092,00	1436,56
1093,00	1485,36
1094,00	1407,43
1095,00	1394,32
1096,00	1390,85
1097,00	1403,72
1098,00	1364,55
1099,00	1433,59
1100,00	1384,41
1101,00	1391,65
1102,00	1387,26
1103,00	1428,34
1104,00	1416,20
1105,00	1458,74
1106,00	1391,43
1107,00	1403,31
1108,00	1398,87
1109,00	1374,33
1110,00	1374,46
1111,00	1459,43
1112,00	1418,81
1113,00	1387,70
1114,00	1383,29
1115,00	1363,11
1116,00	1405,82
1117,00	1378,79
1118,00	1384,45
1119,00	1401,10
1120,00	1428,81
1121,00	1550,88
1122,00	1403,90
1123,00	1384,29
1124,00	1428,30
1125,00	1368,86
1126,00	1391,12
1127,00	1397,07
1128,00	1495,22
1129,00	1381,48
1130,00	1370,89
1131,00	1415,49
1132,00	1394,38
1133,00	1406,88
1134,00	1459,21
1135,00	1417,46
1136,00	1438,17
1137,00	1416,71
1138,00	1390,93
1139,00	1395,86
1140,00	1388,52
1141,00	1382,02
1142,00	1377,87
1143,00	1394,64
1144,00	1430,62
1145,00	1458,26
1146,00	1402,59
1147,00	1409,48
1148,00	1381,03
1149,00	1376,86
1150,00	1390,77
1151,00	1425,34
1152,00	1410,87
1153,00	1388,56
1154,00	1407,91
1155,00	1377,92
1156,00	1408,38
1157,00	1401,20
1158,00	1418,43
1159,00	1384,02
1160,00	1382,07
1161,00	1417,25
1162,00	1422,67
1163,00	1390,33
1164,00	1370,19
1165,00	1434,99
1166,00	1446,01
1167,00	1395,09
1168,00	1409,62
1169,00	1387,91
1170,00	1390,07
1171,00	1442,25
1172,00	1386,97
1173,00	1399,06
1174,00	1394,39
1175,00	1380,31
1176,00	1382,72
1177,00	1418,48
1178,00	1466,65
1179,00	1426,51
1180,00	1392,15
1181,00	1405,29
1182,00	1393,65
1183,00	1411,88
1184,00	1384,45
1185,00	1396,18
1186,00	1416,23
1187,00	1402,17
1188,00	1419,62
1189,00	1372,34
1190,00	1387,02
1191,00	1411,35
1192,00	1438,21
1193,00	1385,97
1194,00	1390,09
1195,00	1409,73
1196,00	1427,94
1197,00	1377,68
1198,00	1436,15
1199,00	1417,94
1200,00	1392,14
1201,00	1369,72
1202,00	1398,23
1203,00	1402,08
1204,00	1372,78
1205,00	1401,91
1206,00	1371,85
1207,00	1414,87
1208,00	1415,98
1209,00	1373,19
1210,00	1384,63
1211,00	1410,38
1212,00	1387,67
1213,00	1373,41
1214,00	1369,96
1215,00	1399,16
1216,00	1366,99
1217,00	1406,43
1218,00	1382,55
1219,00	1385,54
1220,00	1388,42
1221,00	1446,04
1222,00	1425,70
1223,00	1381,24
1224,00	1391,54
1225,00	1380,94
1226,00	1382,91
1227,00	1402,78
1228,00	1381,31
1229,00	1390,44
1230,00	1380,16
1231,00	1388,98
1232,00	1374,55
1233,00	1379,89
1234,00	1392,47
1235,00	1376,63
1236,00	1419,34
1237,00	1400,47
1238,00	1398,04
1239,00	1396,90
1240,00	1369,65
1241,00	1412,87
1242,00	1392,93
1243,00	1418,05
1244,00	1367,51
1245,00	1386,43
1246,00	1399,89
1247,00	1425,91
1248,00	1414,46
1249,00	1412,51
1250,00	1391,33
1251,00	1409,94
1252,00	1398,57
1253,00	1429,85
1254,00	1392,33
1255,00	1412,75
1256,00	1392,29
1257,00	1401,18
1258,00	1379,68
1259,00	1366,37
1260,00	1417,59
1261,00	1396,91
1262,00	1380,47
1263,00	1383,65
1264,00	1403,95
1265,00	1377,42
1266,00	1468,37
1267,00	1393,81
1268,00	1377,59
1269,00	1384,89
1270,00	1420,97
1271,00	1383,87
1272,00	1389,39
1273,00	1408,03
1274,00	1393,77
1275,00	1382,68
1276,00	1473,45
1277,00	1719,47
1278,00	1448,96
1279,00	1405,10
1280,00	1392,96
1281,00	1381,48
1282,00	1382,14
1283,00	1377,93
1284,00	1383,47
1285,00	1480,05
1286,00	1380,27
1287,00	1402,07
1288,00	1400,53
1289,00	1476,28
1290,00	1395,85
1291,00	1381,74
1292,00	1402,39
1293,00	1381,89
1294,00	1371,64
1295,00	1382,65
1296,00	1435,41
1297,00	1388,69
1298,00	1399,97
1299,00	1374,61
1300,00	1409,68
1301,00	1416,37
1302,00	1449,63
1303,00	1388,75
1304,00	1459,78
1305,00	1414,64
1306,00	1400,47
1307,00	1404,03
1308,00	1415,13
1309,00	1381,18
1310,00	1382,00
1311,00	1391,61
1312,00	1385,27
1313,00	1381,95
1314,00	1398,73
1315,00	1450,21
1316,00	1371,39
1317,00	1371,89
1318,00	1395,87
1319,00	1406,05
1320,00	1389,03
1321,00	1417,28
1322,00	1648,41
1323,00	1388,01
1324,00	1379,44
1325,00	1379,46
1326,00	1378,02
1327,00	1363,25
1328,00	1407,41
1329,00	1374,50
1330,00	1393,98
1331,00	1407,28
1332,00	1378,13
1333,00	1388,47
1334,00	1374,60
1335,00	1416,50
1336,00	1413,38
1337,00	1421,85
1338,00	1396,30
1339,00	1370,40
1340,00	1393,69
1341,00	1410,50
1342,00	1393,41
1343,00	1443,55
1344,00	1406,21
1345,00	1361,92
1346,00	1378,00
1347,00	1392,69
1348,00	1394,19
1349,00	1365,73
1350,00	1466,33
1351,00	1443,03
1352,00	1405,46
1353,00	1395,11
1354,00	1537,24
1355,00	1379,90
1356,00	1368,13
1357,00	1371,43
1358,00	1403,09
1359,00	1418,25
1360,00	1389,04
1361,00	1375,56
1362,00	1382,70
1363,00	1395,62
1364,00	1412,59
1365,00	1440,38
1366,00	1377,28
1367,00	1369,10
1368,00	1382,54
1369,00	1382,32
1370,00	1411,56
1371,00	1381,38
1372,00	1368,53
1373,00	1453,86
1374,00	1384,74
1375,00	1397,32
1376,00	1406,80
1377,00	1413,22
1378,00	1435,96
1379,00	1404,58
1380,00	1510,01
1381,00	1381,56
1382,00	1375,62
1383,00	1455,64
1384,00	1388,85
1385,00	1410,19
1386,00	1436,01
1387,00	1438,35
1388,00	1392,13
1389,00	1427,12
1390,00	1374,62
1391,00	1377,24
1392,00	1448,15
1393,00	1411,46
1394,00	1391,20
1395,00	1379,61
1396,00	1430,70
1397,00	1379,48
1398,00	1508,61
1399,00	1609,05
1400,00	1431,08
1401,00	1435,39
1402,00	1591,64
1403,00	1414,38
1404,00	1387,32
1405,00	1387,74
1406,00	1390,87
1407,00	1390,35
1408,00	1396,77
1409,00	1386,50
1410,00	1376,75
1411,00	2158,49
1412,00	1444,62
1413,00	1369,26
1414,00	1365,04
1415,00	1377,01
1416,00	1362,80
1417,00	1368,15
1418,00	1403,13
1419,00	1411,32
1420,00	1380,15
1421,00	1370,05
1422,00	1363,07
1423,00	1361,65
1424,00	1393,52
1425,00	1366,42
1426,00	1401,92
1427,00	1399,34
1428,00	1359,22
1429,00	1390,86
1430,00	1365,30
1431,00	1368,26
1432,00	1401,16
1433,00	1380,82
1434,00	1412,76
1435,00	1402,43
1436,00	1382,76
1437,00	1427,45
1438,00	1381,64
1439,00	1381,68
1440,00	1384,28
1441,00	1380,14
1442,00	1373,54
1443,00	1364,87
1444,00	1371,83
1445,00	1365,14
1446,00	1403,94
1447,00	1386,00
1448,00	1404,11
1449,00	1390,45
1450,00	1388,73
1451,00	1375,63
1452,00	1432,79
1453,00	1386,90
1454,00	1424,92
1455,00	1426,02
1456,00	1377,78
1457,00	1434,63
1458,00	1415,81
1459,00	1380,50
1460,00	1378,62
1461,00	1396,78
1462,00	1387,76
1463,00	1400,25
1464,00	1382,22
1465,00	1390,82
1466,00	1372,88
1467,00	1415,08
1468,00	1381,11
1469,00	1371,30
1470,00	1382,47
1471,00	1404,40
1472,00	1387,95
1473,00	1373,60
1474,00	1392,48
1475,00	1373,46
1476,00	1469,29
1477,00	1415,53
1478,00	1584,77
1479,00	1464,56
1480,00	1403,77
1481,00	1381,17
1482,00	1384,59
1483,00	1382,00
1484,00	1423,94
1485,00	1422,50
1486,00	1381,37
1487,00	1413,21
1488,00	1413,80
1489,00	1401,56
1490,00	1405,23
1491,00	1403,52
1492,00	1386,02
1493,00	1374,13
1494,00	1369,04
1495,00	1408,72
1496,00	1379,91
1497,00	1435,28
1498,00	1428,77
1499,00	1406,67
1500,00	1395,10
1501,00	1396,32
1502,00	1374,47
1503,00	1457,68
1504,00	1384,47
1505,00	1426,29
1506,00	1369,26
1507,00	1354,52
1508,00	1390,92
1509,00	1374,14
1510,00	1360,33
1511,00	1407,12
1512,00	1381,78
1513,00	1387,68
1514,00	1386,07
1515,00	1396,22
1516,00	1642,41
1517,00	1451,52
1518,00	1394,56
1519,00	1391,21
1520,00	1411,37
1521,00	1378,16
1522,00	1404,17
1523,00	1387,30
1524,00	1384,88
1525,00	1371,50
1526,00	1376,37
1527,00	1367,81
1528,00	1396,59
1529,00	1361,24
1530,00	1368,29
1531,00	1378,88
1532,00	1377,29
1533,00	1360,35
1534,00	1388,38
1535,00	1365,80
1536,00	1395,54
1537,00	1413,50
1538,00	1411,51
1539,00	1418,85
1540,00	1405,57
1541,00	1400,05
1542,00	1374,28
1543,00	1381,97
1544,00	1411,16
1545,00	1395,97
1546,00	1385,95
1547,00	1393,04
1548,00	1381,38
1549,00	1374,82
1550,00	1378,55
1551,00	1388,93
1552,00	1373,09
1553,00	1364,27
1554,00	1372,87
1555,00	1365,94
1556,00	1374,92
1557,00	1407,23
1558,00	1389,74
1559,00	1378,94
1560,00	1381,47
1561,00	1378,63
1562,00	1422,73
1563,00	1386,20
1564,00	1368,62
1565,00	1387,41
1566,00	1394,07
1567,00	1414,70
1568,00	1392,27
1569,00	1391,56
1570,00	1390,82
1571,00	1402,85
1572,00	1414,98
1573,00	1398,32
1574,00	1439,75
1575,00	1377,29
1576,00	1364,16
1577,00	1369,04
1578,00	1407,58
1579,00	1381,81
1580,00	1373,63
1581,00	1380,99
1582,00	1366,15
1583,00	1440,20
1584,00	1391,15
1585,00	1363,31
1586,00	1392,88
1587,00	1403,12
1588,00	1418,02
1589,00	1382,99
1590,00	1399,81
1591,00	1383,86
1592,00	1450,62
1593,00	1375,57
1594,00	1391,37
1595,00	1370,19
1596,00	1380,42
1597,00	1373,30
1598,00	1373,90
1599,00	1383,31
1600,00	1358,94
1601,00	1406,52
1602,00	1426,38
1603,00	1397,75
1604,00	1375,05
1605,00	1438,08
1606,00	1368,60
1607,00	1382,34
1608,00	1377,13
1609,00	1383,28
1610,00	1364,73
1611,00	1421,35
1612,00	1373,90
1613,00	1396,31
1614,00	1375,57
1615,00	1376,97
1616,00	1409,12
1617,00	1390,81
1618,00	1406,24
1619,00	1382,74
1620,00	1417,45
1621,00	1400,48
1622,00	1386,02
1623,00	1425,54
1624,00	1414,83
1625,00	1388,48
1626,00	1458,58
1627,00	1389,73
1628,00	1391,87
1629,00	1622,72
1630,00	1412,54
1631,00	1382,13
1632,00	1401,76
1633,00	1387,83
1634,00	1391,55
1635,00	1382,33
1636,00	1385,61
1637,00	1380,70
1638,00	1370,94
1639,00	1366,12
1640,00	1398,36
1641,00	1430,88
1642,00	1427,96
1643,00	1377,51
1644,00	1461,77
1645,00	1408,47
1646,00	1383,53
1647,00	1415,86
1648,00	1393,96
1649,00	1385,86
1650,00	1466,77
1651,00	1426,57
1652,00	1368,36
1653,00	1381,11
1654,00	1388,45
1655,00	1386,43
1656,00	1377,04
1657,00	1440,04
1658,00	1378,80
1659,00	1410,09
1660,00	1408,84
1661,00	1417,44
1662,00	1394,58
1663,00	1413,74
1664,00	1402,76
1665,00	1373,74
1666,00	1396,51
1667,00	1449,98
1668,00	1371,60
1669,00	1378,71
1670,00	1405,36
1671,00	1370,02
1672,00	1365,13
1673,00	1410,53
1674,00	1400,52
1675,00	1403,83
1676,00	1394,33
1677,00	1392,84
1678,00	1398,30
1679,00	1395,51
1680,00	1400,52
1681,00	1407,20
1682,00	1479,68
1683,00	1409,39
1684,00	1427,95
1685,00	1408,46
1686,00	1370,33
1687,00	1372,51
1688,00	1413,56
1689,00	1376,60
1690,00	1375,58
1691,00	1374,95
1692,00	1375,90
1693,00	1439,30
1694,00	1373,01
1695,00	1388,21
1696,00	1386,44
1697,00	1393,94
1698,00	1374,47
1699,00	1396,70
1700,00	1395,38
1701,00	1423,08
1702,00	1377,59
1703,00	1370,33
1704,00	1373,10
1705,00	1402,60
1706,00	1374,33
1707,00	1374,63
1708,00	1376,96
1709,00	1406,99
1710,00	1391,79
1711,00	1372,22
1712,00	1385,74
1713,00	1451,10
1714,00	1406,86
1715,00	1388,85
1716,00	1434,26
1717,00	1388,51
1718,00	1444,21
1719,00	1420,94
1720,00	1379,03
1721,00	1397,97
1722,00	1378,69
1723,00	1419,41
1724,00	1381,91
1725,00	1393,45
1726,00	1396,93
1727,00	1375,00
1728,00	1426,94
1729,00	1369,31
1730,00	1455,26
1731,00	1407,87
1732,00	1465,10
1733,00	1403,70
1734,00	1368,22
1735,00	1388,83
1736,00	1381,28
1737,00	1368,96
1738,00	1383,57
1739,00	1415,56
1740,00	1409,38
1741,00	1468,06
1742,00	1403,05
1743,00	1377,75
1744,00	1372,55
1745,00	1376,72
1746,00	1381,52
1747,00	1391,02
1748,00	1405,71
1749,00	1452,11
1750,00	1418,97
1751,00	1479,10
1752,00	1387,29
1753,00	1371,43
1754,00	1386,81
1755,00	1397,46
1756,00	1382,59
1757,00	1436,44
1758,00	1381,53
1759,00	1372,79
1760,00	1376,91
1761,00	1403,31
1762,00	1395,12
1763,00	1368,26
1764,00	1412,32
1765,00	1377,03
1766,00	1376,37
1767,00	1373,19
1768,00	1376,15
1769,00	1399,47
1770,00	1369,11
1771,00	1385,23
1772,00	1456,77
1773,00	1375,18
1774,00	1360,38
1775,00	1377,97
1776,00	1386,58
1777,00	1359,94
1778,00	1371,20
1779,00	1369,31
1780,00	1366,41
1781,00	1364,27
1782,00	1374,16
1783,00	1394,61
1784,00	1389,71
1785,00	1387,27
1786,00	1401,58
1787,00	1373,69
1788,00	1398,30
1789,00	1397,71
1790,00	1429,04
1791,00	1375,79
1792,00	1400,82
1793,00	1377,30
1794,00	1369,11
1795,00	1373,57
1796,00	1369,71
1797,00	1360,28
1798,00	1379,17
1799,00	1367,58
1800,00	1411,10
1801,00	1390,57
1802,00	1421,32
1803,00	1385,41
1804,00	1403,17
1805,00	1389,67
1806,00	1395,76
1807,00	1387,01
1808,00	1367,69
1809,00	1390,18
1810,00	1413,02
1811,00	1396,54
1812,00	1374,43
1813,00	1379,29
1814,00	1389,30
1815,00	1405,75
1816,00	1485,08
1817,00	1385,93
1818,00	1569,67
1819,00	1434,91
1820,00	1419,03
1821,00	1378,94
1822,00	1360,97
1823,00	1371,32
1824,00	1390,83
1825,00	1448,89
1826,00	1373,98
1827,00	1439,32
1828,00	1468,94
1829,00	1390,89
1830,00	1413,13
1831,00	1373,10
1832,00	1365,14
1833,00	1358,57
1834,00	1373,44
1835,00	1389,58
1836,00	1367,56
1837,00	1367,16
1838,00	1395,45
1839,00	1438,40
1840,00	1474,35
1841,00	1403,40
1842,00	1408,38
1843,00	1412,03
1844,00	1460,74
1845,00	1407,11
1846,00	1371,21
1847,00	1377,05
1848,00	1398,46
1849,00	1391,30
1850,00	1400,01
1851,00	1410,71
1852,00	1372,83
1853,00	1375,03
1854,00	1376,51
1855,00	1371,50
1856,00	1368,66
1857,00	1378,04
1858,00	1449,60
1859,00	1366,42
1860,00	1389,96
1861,00	1539,78
1862,00	1383,10
1863,00	1382,75
1864,00	1371,06
1865,00	1390,49
1866,00	1412,47
1867,00	1372,05
1868,00	1394,25
1869,00	1367,81
1870,00	1382,18
1871,00	1369,84
1872,00	1391,06
1873,00	1390,56
1874,00	1401,99
1875,00	1381,15
1876,00	1366,48
1877,00	1391,78
1878,00	1427,68
1879,00	1411,88
1880,00	1361,86
1881,00	1392,15
1882,00	1381,90
1883,00	1379,83
1884,00	1375,39
1885,00	1393,21
1886,00	1394,96
1887,00	1365,12
1888,00	1373,63
1889,00	1396,04
1890,00	1365,63
1891,00	1409,63
1892,00	1428,11
1893,00	1381,71
1894,00	1407,53
1895,00	1394,92
1896,00	1419,77
1897,00	1485,25
1898,00	1382,11
1899,00	1388,35
1900,00	1382,44
1901,00	1395,44
1902,00	1385,67
1903,00	1442,03
1904,00	1397,66
1905,00	1560,50
1906,00	1380,30
1907,00	1371,10
1908,00	1540,23
1909,00	1385,18
1910,00	1378,91
1911,00	1393,26
1912,00	1400,91
1913,00	1445,73
1914,00	1380,11
1915,00	1382,43
1916,00	1403,49
1917,00	1393,47
1918,00	1390,09
1919,00	1392,76
1920,00	1368,08
1921,00	1422,43
1922,00	1384,52
1923,00	1389,85
1924,00	1395,89
1925,00	1372,85
1926,00	1389,29
1927,00	1412,40
1928,00	1430,11
1929,00	1405,38
1930,00	1370,99
1931,00	1410,35
1932,00	1475,84
1933,00	1394,96
1934,00	1365,73
1935,00	1377,50
1936,00	1390,86
1937,00	1367,89
1938,00	1389,47
1939,00	1378,00
1940,00	1458,57
1941,00	1372,07
1942,00	1380,34
1943,00	1376,78
1944,00	1395,48
1945,00	1378,06
1946,00	1361,74
1947,00	1364,53
1948,00	1467,28
1949,00	1372,57
1950,00	1402,51
1951,00	1374,11
1952,00	1380,63
1953,00	1364,08
1954,00	1404,06
1955,00	1380,27
1956,00	1382,42
1957,00	1398,88
1958,00	1363,54
1959,00	1382,40
1960,00	1364,94
1961,00	1416,76
1962,00	1364,68
1963,00	1402,64
1964,00	1368,70
1965,00	1397,55
1966,00	1370,84
1967,00	1416,40
1968,00	1368,68
1969,00	1366,46
1970,00	1390,74
1971,00	1413,28
1972,00	1388,62
1973,00	1404,41
1974,00	1396,72
1975,00	1405,09
1976,00	1402,26
1977,00	1394,31
1978,00	1387,71
1979,00	1395,23
1980,00	1557,45
1981,00	1393,24
1982,00	1366,29
1983,00	1384,42
1984,00	1388,88
1985,00	1439,49
1986,00	1368,15
1987,00	1369,33
1988,00	1375,79
1989,00	1385,41
1990,00	1442,67
1991,00	1404,97
1992,00	1410,64
1993,00	1494,00
1994,00	1404,39
1995,00	1367,67
1996,00	1394,74
1997,00	1390,72
1998,00	1395,77
1999,00	1361,95
2000,00	1359,89
2001,00	1379,03
2002,00	1433,33
2003,00	1358,43
2004,00	1405,25
2005,00	1364,10
2006,00	1448,30
2007,00	1377,52
2008,00	1360,59
2009,00	1438,52
2010,00	1369,30
2011,00	1359,85
2012,00	1384,73
2013,00	1374,03
2014,00	1386,03
2015,00	1371,02
2016,00	1368,63
2017,00	1379,29
2018,00	1387,68
2019,00	1371,17
2020,00	1367,50
2021,00	1396,67
2022,00	1388,68
2023,00	1382,46
2024,00	1370,41
2025,00	1425,87
2026,00	1377,85
2027,00	1361,55
2028,00	1400,53
2029,00	1371,22
2030,00	1369,63
2031,00	1371,48
2032,00	1362,52
2033,00	1390,05
2034,00	1435,40
2035,00	1397,04
2036,00	1389,40
2037,00	1376,97
2038,00	1383,01
2039,00	1377,45
2040,00	1395,97
2041,00	1387,10
2042,00	1365,71
2043,00	1384,39
2044,00	1399,89
2045,00	1372,18
2046,00	1372,18
2047,00	1372,18
>>>>>End Processed Spectral Data<<<<<
