SpectraSuite Datei
++++++++++++++++++++++++++++++++++++
Datum: Thu Sep 19 18:17:23 CEST 2024
Benutzer: Student
Dark-Spektrum vorhanden: Nein
Referenz-Spektrum vorhanden: Nein
Zahl der probierten Teilspektren: 1
Spektrometer: USB2+H15728
Integrationszeit (usec): 1000 (USB2+H15728)
Spektren Durchschnitt berechnet: 50 (USB2+H15728)
Boxcar Glättung: 0 (USB2+H15728)
Dunkelstromkorrektur: Nein (USB2+H15728)
Puls/Lampe aktiviert: Nein (USB2+H15728)
Correct for Detector Non-linearity: Nein (USB2+H15728)
Streulichtkorrektur: Nein (USB2+H15728)
Anzahl Pixel in verarbeitetem Spektrum: 2048
>>>>>Begin Processed Spectral Data<<<<<
0,00	669,53
1,00	669,53
2,00	669,53
3,00	655,58
4,00	638,50
5,00	649,03
6,00	654,98
7,00	655,30
8,00	665,09
9,00	670,42
10,00	686,67
11,00	706,75
12,00	715,64
13,00	742,46
14,00	746,26
15,00	773,87
16,00	793,02
17,00	799,48
18,00	813,94
19,00	839,50
20,00	854,11
21,00	858,56
22,00	882,19
23,00	1090,36
24,00	1621,62
25,00	1674,37
26,00	1713,65
27,00	1755,45
28,00	1741,03
29,00	1780,73
30,00	1813,03
31,00	1849,68
32,00	1861,85
33,00	1869,67
34,00	1854,78
35,00	1898,92
36,00	1888,34
37,00	1909,74
38,00	1911,75
39,00	1918,86
40,00	1904,40
41,00	1910,39
42,00	1883,71
43,00	1904,92
44,00	1930,75
45,00	1942,32
46,00	1983,32
47,00	1956,27
48,00	1922,84
49,00	1891,01
50,00	1897,38
51,00	1947,04
52,00	1988,66
53,00	1965,21
54,00	1943,35
55,00	1955,56
56,00	1927,99
57,00	1942,55
58,00	1942,08
59,00	1942,93
60,00	1955,89
61,00	1972,32
62,00	2012,58
63,00	2020,26
64,00	2016,93
65,00	2026,58
66,00	2037,39
67,00	2067,68
68,00	2106,95
69,00	2123,52
70,00	2129,23
71,00	2127,64
72,00	2134,94
73,00	2098,99
74,00	2092,67
75,00	2057,52
76,00	2052,37
77,00	2034,35
78,00	2037,39
79,00	2042,59
80,00	2100,40
81,00	2187,14
82,00	2213,12
83,00	2234,37
84,00	2264,75
85,00	2282,49
86,00	2305,05
87,00	2300,00
88,00	2290,92
89,00	2289,32
90,00	2295,50
91,00	2314,37
92,00	2299,53
93,00	2335,34
94,00	2312,45
95,00	2296,81
96,00	2297,75
97,00	2350,88
98,00	2383,74
99,00	2401,39
100,00	2366,09
101,00	2360,29
102,00	2406,87
103,00	2415,90
104,00	2409,39
105,00	2416,93
106,00	2429,99
107,00	2434,20
108,00	2467,07
109,00	2444,69
110,00	2488,69
111,00	2523,85
112,00	2487,43
113,00	2491,97
114,00	2470,86
115,00	2477,46
116,00	2438,18
117,00	2443,33
118,00	2469,59
119,00	2457,52
120,00	2511,68
121,00	2499,36
122,00	2491,08
123,00	2511,77
124,00	2515,51
125,00	2505,26
126,00	2560,59
127,00	2565,84
128,00	2546,97
129,00	2567,75
130,00	2526,98
131,00	2565,41
132,00	2606,56
133,00	2661,33
134,00	2678,13
135,00	2705,71
136,00	2717,92
137,00	2729,16
138,00	2687,36
139,00	2711,70
140,00	2660,30
141,00	2699,20
142,00	2625,99
143,00	2623,69
144,00	2576,74
145,00	2510,04
146,00	2603,66
147,00	2696,72
148,00	2710,48
149,00	2758,09
150,00	2713,94
151,00	2724,43
152,00	2695,41
153,00	2708,19
154,00	2760,99
155,00	2801,48
156,00	2681,88
157,00	2699,62
158,00	2680,29
159,00	2758,32
160,00	2749,71
161,00	2763,99
162,00	2730,94
163,00	2705,99
164,00	2756,73
165,00	2742,78
166,00	2771,01
167,00	2746,76
168,00	2698,54
169,00	2658,80
170,00	2670,46
171,00	2683,89
172,00	2766,19
173,00	2792,26
174,00	2762,07
175,00	2736,98
176,00	2747,51
177,00	2690,96
178,00	2630,81
179,00	2606,56
180,00	2556,57
181,00	2575,15
182,00	2538,12
183,00	2443,14
184,00	2348,77
185,00	2332,44
186,00	2373,44
187,00	2448,95
188,00	2497,87
189,00	2556,94
190,00	2661,84
191,00	2724,95
192,00	2905,92
193,00	3029,64
194,00	3073,31
195,00	3066,48
196,00	3048,27
197,00	2953,10
198,00	2947,06
199,00	2933,44
200,00	3037,97
201,00	3107,30
202,00	3056,83
203,00	2984,04
204,00	2995,75
205,00	2922,25
206,00	2880,97
207,00	2971,26
208,00	3051,17
209,00	3166,70
210,00	3238,18
211,00	3243,98
212,00	3230,45
213,00	3227,60
214,00	3286,44
215,00	3327,17
216,00	3397,01
217,00	3410,63
218,00	3409,97
219,00	3440,59
220,00	3387,69
221,00	3393,36
222,00	3334,37
223,00	3307,08
224,00	3286,58
225,00	3271,18
226,00	3260,69
227,00	3227,32
228,00	3271,98
229,00	3159,63
230,00	3155,79
231,00	3211,40
232,00	3387,18
233,00	3424,48
234,00	3422,00
235,00	3480,94
236,00	3491,66
237,00	3528,87
238,00	3517,73
239,00	3488,47
240,00	3522,93
241,00	3478,41
242,00	3580,22
243,00	3652,64
244,00	3726,74
245,00	3764,75
246,00	3761,47
247,00	3762,83
248,00	3762,22
249,00	3865,07
250,00	3808,19
251,00	3823,08
252,00	3782,40
253,00	3802,72
254,00	3905,09
255,00	3841,94
256,00	3892,36
257,00	3840,16
258,00	3905,70
259,00	3919,88
260,00	4020,43
261,00	3872,14
262,00	3867,03
263,00	3966,32
264,00	3970,95
265,00	3898,02
266,00	3876,16
267,00	3827,48
268,00	3824,76
269,00	3782,17
270,00	3783,57
271,00	3868,25
272,00	3939,68
273,00	3989,72
274,00	4099,78
275,00	4014,91
276,00	4031,53
277,00	4107,36
278,00	4120,05
279,00	4181,98
280,00	4202,62
281,00	4170,51
282,00	4094,95
283,00	4096,64
284,00	4133,43
285,00	4260,95
286,00	4207,86
287,00	4222,37
288,00	4242,03
289,00	4226,59
290,00	4228,08
291,00	4280,56
292,00	4410,69
293,00	4317,96
294,00	4362,15
295,00	4417,29
296,00	4419,54
297,00	4330,04
298,00	4383,45
299,00	4346,23
300,00	4320,44
301,00	4323,95
302,00	4306,49
303,00	4309,58
304,00	4186,14
305,00	4196,63
306,00	4214,32
307,00	4148,65
308,00	4083,91
309,00	4073,56
310,00	4116,58
311,00	4168,26
312,00	4265,72
313,00	4284,07
314,00	4336,83
315,00	4341,93
316,00	4327,42
317,00	4297,79
318,00	4280,14
319,00	4281,21
320,00	4268,01
321,00	4349,42
322,00	4315,90
323,00	4410,74
324,00	4406,11
325,00	4468,22
326,00	4476,60
327,00	4524,26
328,00	4454,69
329,00	4519,53
330,00	4536,57
331,00	4515,64
332,00	4469,39
333,00	4477,35
334,00	4510,96
335,00	4502,07
336,00	4442,10
337,00	4450,20
338,00	4418,70
339,00	4446,92
340,00	4477,54
341,00	4567,32
342,00	4539,00
343,00	4513,49
344,00	4490,22
345,00	4578,65
346,00	4466,35
347,00	4580,05
348,00	4606,83
349,00	4640,72
350,00	4689,22
351,00	4765,89
352,00	4772,59
353,00	4796,83
354,00	4791,22
355,00	4803,76
356,00	4847,06
357,00	4844,72
358,00	4873,32
359,00	4867,14
360,00	4895,42
361,00	4941,67
362,00	4951,17
363,00	4882,97
364,00	4983,14
365,00	4952,76
366,00	4937,97
367,00	4917,93
368,00	4967,83
369,00	4913,11
370,00	4925,38
371,00	4929,50
372,00	4898,09
373,00	4922,85
374,00	4918,40
375,00	4942,74
376,00	5026,91
377,00	4999,48
378,00	4993,72
379,00	4972,51
380,00	4969,43
381,00	5032,48
382,00	4913,39
383,00	4879,92
384,00	4784,48
385,00	4789,58
386,00	4853,19
387,00	4962,54
388,00	4989,51
389,00	5048,63
390,00	5005,56
391,00	5020,54
392,00	5009,03
393,00	5048,16
394,00	5040,76
395,00	5114,91
396,00	5109,81
397,00	5057,90
398,00	5006,13
399,00	5015,21
400,00	5044,79
401,00	4998,35
402,00	4997,84
403,00	4964,79
404,00	4972,23
405,00	4988,99
406,00	5045,87
407,00	5064,36
408,00	5126,52
409,00	5155,69
410,00	5256,56
411,00	5290,50
412,00	5360,06
413,00	5384,92
414,00	5375,51
415,00	5377,29
416,00	5389,13
417,00	5351,63
418,00	5358,42
419,00	5272,20
420,00	5326,17
421,00	5336,80
422,00	5434,02
423,00	5465,06
424,00	5474,93
425,00	5563,41
426,00	5629,46
427,00	5587,56
428,00	5614,48
429,00	5635,64
430,00	5628,43
431,00	5652,30
432,00	5527,60
433,00	5546,09
434,00	5531,72
435,00	5587,56
436,00	5593,41
437,00	5599,73
438,00	5592,71
439,00	5611,29
440,00	5644,86
441,00	5768,53
442,00	5834,02
443,00	5880,22
444,00	5893,84
445,00	5948,94
446,00	5952,26
447,00	5950,25
448,00	5951,23
449,00	5945,24
450,00	5936,58
451,00	5884,39
452,00	5941,45
453,00	5999,59
454,00	6034,88
455,00	6081,51
456,00	6176,21
457,00	6138,57
458,00	6095,97
459,00	6077,72
460,00	6161,69
461,00	6132,11
462,00	6213,09
463,00	6214,36
464,00	6256,53
465,00	6323,89
466,00	6317,01
467,00	6367,76
468,00	6389,33
469,00	6393,92
470,00	6390,18
471,00	6341,73
472,00	6310,97
473,00	6336,02
474,00	6334,71
475,00	6393,22
476,00	6375,99
477,00	6348,66
478,00	6340,84
479,00	6377,49
480,00	6376,18
481,00	6387,98
482,00	6329,04
483,00	6379,50
484,00	6362,04
485,00	6334,61
486,00	6164,74
487,00	6105,57
488,00	5990,51
489,00	5821,05
490,00	5678,09
491,00	5561,72
492,00	5416,98
493,00	5396,15
494,00	5605,72
495,00	5879,43
496,00	6074,21
497,00	6202,61
498,00	6229,80
499,00	6232,00
500,00	6308,82
501,00	6437,50
502,00	6567,78
503,00	6573,35
504,00	6590,62
505,00	6540,11
506,00	6474,90
507,00	6523,73
508,00	6503,60
509,00	6575,74
510,00	6635,89
511,00	6803,84
512,00	7052,64
513,00	7032,70
514,00	7033,03
515,00	7020,67
516,00	6969,09
517,00	6916,56
518,00	6990,85
519,00	6901,12
520,00	6795,42
521,00	6712,84
522,00	6811,38
523,00	6828,61
524,00	6741,73
525,00	6655,50
526,00	6645,58
527,00	6684,06
528,00	6827,76
529,00	7042,20
530,00	7049,88
531,00	7192,09
532,00	7177,02
533,00	7189,61
534,00	7056,48
535,00	7005,88
536,00	7082,70
537,00	7138,91
538,00	7267,04
539,00	7401,01
540,00	7403,30
541,00	7405,17
542,00	7396,37
543,00	7436,21
544,00	7367,96
545,00	7361,41
546,00	7287,21
547,00	7217,84
548,00	7296,25
549,00	7463,97
550,00	7577,16
551,00	7555,16
552,00	7498,42
553,00	7496,64
554,00	7482,97
555,00	7566,06
556,00	7533,95
557,00	7542,00
558,00	7417,77
559,00	7360,24
560,00	7353,92
561,00	7278,74
562,00	7245,60
563,00	7377,09
564,00	7491,59
565,00	7589,80
566,00	7596,58
567,00	7611,14
568,00	7593,12
569,00	7579,40
570,00	7555,81
571,00	7432,56
572,00	7379,29
573,00	7342,17
574,00	7294,42
575,00	7345,26
576,00	7380,04
577,00	7409,57
578,00	7355,93
579,00	7287,07
580,00	7353,82
581,00	7404,71
582,00	7432,51
583,00	7589,00
584,00	7645,59
585,00	7725,17
586,00	7771,14
587,00	7752,98
588,00	7770,67
589,00	7799,09
590,00	7836,58
591,00	7744,27
592,00	7669,89
593,00	7624,72
594,00	7586,33
595,00	7587,92
596,00	7806,48
597,00	8050,09
598,00	8164,26
599,00	8082,57
600,00	8083,18
601,00	8102,00
602,00	8237,00
603,00	8333,52
604,00	8379,77
605,00	8377,06
606,00	8376,82
607,00	8366,90
608,00	8269,11
609,00	8250,44
610,00	8184,10
611,00	8248,61
612,00	8238,69
613,00	8094,23
614,00	8180,97
615,00	8221,18
616,00	8123,20
617,00	8165,80
618,00	8212,94
619,00	8421,39
620,00	8551,05
621,00	8568,94
622,00	8682,12
623,00	8649,92
624,00	8719,81
625,00	8658,53
626,00	8636,39
627,00	8493,94
628,00	8435,81
629,00	8577,13
630,00	8645,52
631,00	8715,22
632,00	8699,96
633,00	8688,96
634,00	8785,11
635,00	8852,00
636,00	8931,30
637,00	8940,24
638,00	8961,68
639,00	8927,88
640,00	8918,14
641,00	8815,07
642,00	8641,82
643,00	8627,78
644,00	8673,70
645,00	8695,09
646,00	8824,57
647,00	8761,42
648,00	8751,22
649,00	8713,86
650,00	8652,68
651,00	8689,80
652,00	8752,90
653,00	8791,80
654,00	8834,73
655,00	8902,70
656,00	9026,88
657,00	9056,14
658,00	9077,11
659,00	9100,99
660,00	9097,99
661,00	8938,55
662,00	8880,37
663,00	8690,60
664,00	8479,57
665,00	8221,65
666,00	7989,84
667,00	7713,66
668,00	7755,93
669,00	7912,09
670,00	7952,25
671,00	8190,80
672,00	8514,82
673,00	8714,19
674,00	8769,75
675,00	8550,59
676,00	8181,06
677,00	8050,46
678,00	8314,57
679,00	8767,09
680,00	9036,15
681,00	9035,17
682,00	9016,73
683,00	9072,81
684,00	9125,19
685,00	9199,15
686,00	9280,55
687,00	9347,26
688,00	9271,19
689,00	9184,96
690,00	9194,33
691,00	9044,95
692,00	9217,17
693,00	9278,77
694,00	9435,82
695,00	9412,89
696,00	9360,13
697,00	9456,75
698,00	9473,08
699,00	9422,11
700,00	9191,66
701,00	9017,76
702,00	8894,08
703,00	9171,81
704,00	9362,89
705,00	9466,44
706,00	9540,44
707,00	9684,86
708,00	9708,12
709,00	9735,83
710,00	9628,92
711,00	9656,40
712,00	9705,08
713,00	9716,03
714,00	9754,65
715,00	9656,02
716,00	9637,06
717,00	9603,03
718,00	9490,08
719,00	9379,37
720,00	9285,00
721,00	9159,97
722,00	9029,46
723,00	8764,84
724,00	8651,28
725,00	8673,42
726,00	8755,76
727,00	8840,95
728,00	8936,45
729,00	9135,95
730,00	9158,80
731,00	9430,63
732,00	9672,64
733,00	9693,14
734,00	9630,42
735,00	9790,04
736,00	9894,38
737,00	9906,41
738,00	9913,01
739,00	9688,09
740,00	9699,27
741,00	9702,88
742,00	9651,39
743,00	9618,48
744,00	9719,03
745,00	9846,73
746,00	9985,90
747,00	10083,78
748,00	10112,66
749,00	10017,02
750,00	9881,46
751,00	9938,43
752,00	9965,53
753,00	9923,03
754,00	9877,39
755,00	9792,57
756,00	9685,93
757,00	9622,08
758,00	9510,77
759,00	9399,31
760,00	9217,36
761,00	9025,81
762,00	9226,58
763,00	9411,34
764,00	9698,85
765,00	9853,70
766,00	9810,07
767,00	9748,52
768,00	9605,28
769,00	9682,37
770,00	9719,45
771,00	9706,25
772,00	9701,99
773,00	9766,35
774,00	9834,28
775,00	9958,75
776,00	10163,78
777,00	10290,12
778,00	10282,86
779,00	10176,79
780,00	9975,64
781,00	9913,76
782,00	9661,92
783,00	9504,07
784,00	9456,33
785,00	9339,72
786,00	9328,53
787,00	9527,90
788,00	9815,22
789,00	10091,27
790,00	10006,54
791,00	10014,82
792,00	9925,37
793,00	9905,62
794,00	9861,66
795,00	9822,34
796,00	9678,44
797,00	9499,91
798,00	9353,58
799,00	9361,44
800,00	9295,30
801,00	9434,79
802,00	9417,24
803,00	9477,02
804,00	9502,25
805,00	9455,11
806,00	9270,96
807,00	9347,35
808,00	9370,05
809,00	9362,05
810,00	9299,42
811,00	9360,74
812,00	9424,64
813,00	9593,48
814,00	9691,92
815,00	9778,99
816,00	9793,08
817,00	9752,78
818,00	9731,85
819,00	9741,68
820,00	9682,33
821,00	9458,99
822,00	9401,74
823,00	9450,99
824,00	9416,26
825,00	9457,45
826,00	9708,87
827,00	9858,80
828,00	9919,52
829,00	9955,19
830,00	9892,32
831,00	9697,12
832,00	9881,60
833,00	9893,35
834,00	9854,83
835,00	9716,03
836,00	9560,01
837,00	9443,83
838,00	9508,38
839,00	9614,50
840,00	9628,07
841,00	9671,61
842,00	9776,28
843,00	9895,55
844,00	9873,36
845,00	9928,88
846,00	9851,17
847,00	9714,49
848,00	9578,74
849,00	9435,03
850,00	9493,96
851,00	9534,69
852,00	9497,14
853,00	9529,21
854,00	9730,78
855,00	9778,99
856,00	9815,88
857,00	9971,90
858,00	9995,30
859,00	9988,14
860,00	9974,90
861,00	9880,52
862,00	9832,36
863,00	9779,88
864,00	9674,46
865,00	9711,16
866,00	9650,50
867,00	9520,13
868,00	9495,51
869,00	9627,14
870,00	9621,52
871,00	9784,24
872,00	9864,80
873,00	9975,92
874,00	9958,32
875,00	9992,82
876,00	9894,01
877,00	9821,96
878,00	9786,67
879,00	9670,63
880,00	9658,74
881,00	9786,01
882,00	9791,07
883,00	9779,27
884,00	9772,35
885,00	9820,65
886,00	9902,48
887,00	9998,07
888,00	9951,86
889,00	9936,84
890,00	9933,23
891,00	9984,12
892,00	9980,23
893,00	9962,16
894,00	9958,93
895,00	9893,21
896,00	9811,71
897,00	9810,03
898,00	9726,28
899,00	9572,74
900,00	9459,84
901,00	9435,59
902,00	9449,54
903,00	9448,93
904,00	9506,32
905,00	9550,37
906,00	9435,64
907,00	9484,88
908,00	9530,05
909,00	9636,27
910,00	9706,53
911,00	9675,35
912,00	9605,37
913,00	9542,32
914,00	9320,11
915,00	9146,77
916,00	9070,00
917,00	9149,86
918,00	9234,63
919,00	9263,98
920,00	9332,84
921,00	9394,77
922,00	9358,91
923,00	9403,29
924,00	9402,07
925,00	9570,31
926,00	9882,40
927,00	9927,05
928,00	9944,98
929,00	9891,76
930,00	9826,93
931,00	9616,61
932,00	9366,59
933,00	9321,56
934,00	9329,14
935,00	9362,99
936,00	9490,73
937,00	9466,06
938,00	9323,29
939,00	9368,18
940,00	9425,15
941,00	9466,34
942,00	9483,94
943,00	9521,07
944,00	9560,15
945,00	9490,12
946,00	9593,39
947,00	9577,57
948,00	9529,96
949,00	9587,72
950,00	9547,89
951,00	9441,07
952,00	9398,51
953,00	9281,86
954,00	9281,11
955,00	9136,98
956,00	8991,45
957,00	8922,92
958,00	8857,29
959,00	8982,93
960,00	9096,35
961,00	9218,20
962,00	9359,01
963,00	9420,66
964,00	9513,06
965,00	9588,57
966,00	9562,91
967,00	9565,86
968,00	9553,51
969,00	9387,09
970,00	9235,43
971,00	9057,59
972,00	8979,37
973,00	8895,77
974,00	8793,16
975,00	8772,89
976,00	8777,62
977,00	8902,23
978,00	9014,81
979,00	9113,77
980,00	9110,86
981,00	9171,11
982,00	9174,99
983,00	9120,93
984,00	9151,35
985,00	9060,78
986,00	9008,25
987,00	8870,91
988,00	8799,99
989,00	8671,08
990,00	8571,51
991,00	8659,37
992,00	8800,74
993,00	8778,51
994,00	8770,64
995,00	8921,75
996,00	8934,34
997,00	9022,44
998,00	9115,59
999,00	9123,17
1000,00	9058,20
1001,00	9176,59
1002,00	9189,32
1003,00	9243,81
1004,00	9221,34
1005,00	9307,42
1006,00	9223,40
1007,00	9240,53
1008,00	9070,89
1009,00	9016,96
1010,00	8918,70
1011,00	8832,62
1012,00	8700,24
1013,00	8645,24
1014,00	8610,32
1015,00	8699,49
1016,00	8551,29
1017,00	8583,03
1018,00	8676,93
1019,00	8788,81
1020,00	8849,99
1021,00	8888,84
1022,00	8910,23
1023,00	8978,20
1024,00	9080,20
1025,00	9118,02
1026,00	9134,69
1027,00	9038,91
1028,00	8902,79
1029,00	8838,71
1030,00	8668,22
1031,00	8626,51
1032,00	8500,64
1033,00	8375,51
1034,00	8355,15
1035,00	8368,91
1036,00	8358,43
1037,00	8527,65
1038,00	8562,24
1039,00	8644,72
1040,00	8674,40
1041,00	8833,04
1042,00	8911,68
1043,00	8931,06
1044,00	8920,53
1045,00	9048,32
1046,00	9100,56
1047,00	8949,32
1048,00	8947,63
1049,00	8911,54
1050,00	8835,05
1051,00	8725,61
1052,00	8699,63
1053,00	8670,89
1054,00	8630,16
1055,00	8587,47
1056,00	8577,55
1057,00	8690,97
1058,00	8719,57
1059,00	8853,31
1060,00	8905,93
1061,00	8891,04
1062,00	8923,06
1063,00	9014,76
1064,00	9101,41
1065,00	9046,36
1066,00	9008,35
1067,00	9125,98
1068,00	9100,56
1069,00	9081,37
1070,00	8996,83
1071,00	8959,52
1072,00	8945,67
1073,00	8674,26
1074,00	8584,15
1075,00	8490,34
1076,00	8462,02
1077,00	8417,13
1078,00	8407,11
1079,00	8379,68
1080,00	8403,51
1081,00	8426,40
1082,00	8518,15
1083,00	8607,79
1084,00	8674,35
1085,00	8759,31
1086,00	8826,53
1087,00	8828,13
1088,00	8844,14
1089,00	8907,28
1090,00	8857,85
1091,00	8803,78
1092,00	8799,48
1093,00	8632,18
1094,00	8507,47
1095,00	8286,10
1096,00	8071,76
1097,00	7815,38
1098,00	7651,96
1099,00	7509,19
1100,00	7315,72
1101,00	7079,42
1102,00	7255,47
1103,00	7449,08
1104,00	7491,68
1105,00	7530,21
1106,00	7802,55
1107,00	8007,96
1108,00	8213,78
1109,00	8359,50
1110,00	8414,69
1111,00	8450,50
1112,00	8415,72
1113,00	8444,18
1114,00	8351,87
1115,00	8270,42
1116,00	8223,05
1117,00	8143,38
1118,00	8106,54
1119,00	7902,12
1120,00	7928,05
1121,00	7984,88
1122,00	8000,04
1123,00	8078,22
1124,00	8203,91
1125,00	8141,74
1126,00	8205,26
1127,00	8224,83
1128,00	8266,30
1129,00	8272,76
1130,00	8318,36
1131,00	8308,48
1132,00	8244,02
1133,00	8100,13
1134,00	8070,26
1135,00	8113,65
1136,00	8092,03
1137,00	8134,81
1138,00	8052,19
1139,00	8137,34
1140,00	8155,36
1141,00	8146,80
1142,00	7993,77
1143,00	7943,92
1144,00	7940,22
1145,00	8010,86
1146,00	8077,94
1147,00	8070,45
1148,00	8109,63
1149,00	8076,16
1150,00	8110,99
1151,00	8135,23
1152,00	8151,01
1153,00	8203,62
1154,00	8174,74
1155,00	8115,39
1156,00	8098,39
1157,00	8191,59
1158,00	8175,68
1159,00	8170,11
1160,00	8146,98
1161,00	8104,76
1162,00	8146,47
1163,00	8147,45
1164,00	8080,47
1165,00	8005,19
1166,00	7980,48
1167,00	7909,98
1168,00	7832,04
1169,00	7901,84
1170,00	7859,43
1171,00	7909,70
1172,00	7873,56
1173,00	7960,02
1174,00	7962,27
1175,00	7878,80
1176,00	7937,13
1177,00	7964,28
1178,00	7946,12
1179,00	7946,45
1180,00	7945,04
1181,00	7943,12
1182,00	7930,62
1183,00	7918,45
1184,00	7957,31
1185,00	7969,52
1186,00	8035,15
1187,00	8012,54
1188,00	8039,93
1189,00	7955,43
1190,00	7979,78
1191,00	7890,04
1192,00	7878,06
1193,00	7862,23
1194,00	7920,33
1195,00	7871,78
1196,00	7898,14
1197,00	7871,74
1198,00	7910,31
1199,00	7958,10
1200,00	7996,39
1201,00	7908,48
1202,00	7959,88
1203,00	7924,35
1204,00	7952,63
1205,00	7936,99
1206,00	7883,21
1207,00	7917,38
1208,00	7957,35
1209,00	7920,98
1210,00	7941,20
1211,00	7853,20
1212,00	7836,30
1213,00	7856,85
1214,00	7822,44
1215,00	7741,04
1216,00	7669,56
1217,00	7626,12
1218,00	7644,70
1219,00	7607,44
1220,00	7569,57
1221,00	7564,85
1222,00	7596,82
1223,00	7621,58
1224,00	7590,08
1225,00	7580,01
1226,00	7601,12
1227,00	7618,12
1228,00	7584,60
1229,00	7617,65
1230,00	7600,14
1231,00	7619,05
1232,00	7578,94
1233,00	7584,79
1234,00	7533,81
1235,00	7394,55
1236,00	7438,22
1237,00	7496,50
1238,00	7509,75
1239,00	7454,04
1240,00	7405,74
1241,00	7398,39
1242,00	7412,29
1243,00	7364,78
1244,00	7312,40
1245,00	7302,28
1246,00	7280,38
1247,00	7258,98
1248,00	7201,92
1249,00	7259,97
1250,00	7291,56
1251,00	7353,59
1252,00	7294,19
1253,00	7300,27
1254,00	7249,25
1255,00	7240,35
1256,00	7167,19
1257,00	7086,25
1258,00	7071,37
1259,00	7156,89
1260,00	7195,42
1261,00	7252,01
1262,00	7247,89
1263,00	7219,99
1264,00	7162,41
1265,00	7144,11
1266,00	7101,19
1267,00	7009,86
1268,00	7002,70
1269,00	6927,33
1270,00	6888,71
1271,00	6806,23
1272,00	6791,16
1273,00	6746,22
1274,00	6670,11
1275,00	6765,93
1276,00	6829,12
1277,00	6827,30
1278,00	6854,59
1279,00	6866,34
1280,00	6995,91
1281,00	6974,00
1282,00	7007,24
1283,00	7015,24
1284,00	7055,69
1285,00	7027,83
1286,00	7059,71
1287,00	6979,66
1288,00	7043,09
1289,00	6947,22
1290,00	6890,91
1291,00	6842,60
1292,00	6796,82
1293,00	6789,71
1294,00	6844,33
1295,00	6800,61
1296,00	6883,75
1297,00	6873,03
1298,00	6891,38
1299,00	6839,56
1300,00	6898,12
1301,00	6886,46
1302,00	6881,83
1303,00	6864,42
1304,00	6853,65
1305,00	6795,18
1306,00	6719,91
1307,00	6711,49
1308,00	6678,02
1309,00	6648,76
1310,00	6694,54
1311,00	6715,04
1312,00	6728,71
1313,00	6708,35
1314,00	6695,10
1315,00	6643,14
1316,00	6574,89
1317,00	6540,02
1318,00	6441,34
1319,00	6512,54
1320,00	6518,25
1321,00	6512,21
1322,00	6478,32
1323,00	6449,49
1324,00	6391,72
1325,00	6365,09
1326,00	6325,91
1327,00	6279,05
1328,00	6250,45
1329,00	6240,94
1330,00	6309,01
1331,00	6289,11
1332,00	6300,39
1333,00	6278,16
1334,00	6263,32
1335,00	6257,98
1336,00	6334,71
1337,00	6352,54
1338,00	6400,76
1339,00	6445,55
1340,00	6439,98
1341,00	6363,17
1342,00	6383,86
1343,00	6384,23
1344,00	6228,59
1345,00	6211,64
1346,00	6153,17
1347,00	6101,68
1348,00	5948,71
1349,00	5845,68
1350,00	5929,00
1351,00	5939,67
1352,00	5979,74
1353,00	6151,16
1354,00	6112,78
1355,00	6142,41
1356,00	6140,68
1357,00	6029,17
1358,00	6043,08
1359,00	5983,67
1360,00	6026,46
1361,00	5974,97
1362,00	5974,83
1363,00	5942,25
1364,00	5929,14
1365,00	6018,41
1366,00	6008,76
1367,00	6075,61
1368,00	6087,97
1369,00	6054,59
1370,00	6003,57
1371,00	5973,80
1372,00	5959,75
1373,00	5849,79
1374,00	5831,68
1375,00	5809,21
1376,00	5870,16
1377,00	5952,64
1378,00	5903,02
1379,00	5989,20
1380,00	6006,66
1381,00	6015,18
1382,00	5981,47
1383,00	5956,85
1384,00	5943,70
1385,00	5899,69
1386,00	5824,84
1387,00	5853,63
1388,00	5866,23
1389,00	5870,72
1390,00	5852,23
1391,00	5851,71
1392,00	5902,83
1393,00	5918,42
1394,00	5930,12
1395,00	5946,55
1396,00	5945,99
1397,00	5955,31
1398,00	5927,64
1399,00	5884,86
1400,00	5822,18
1401,00	5877,69
1402,00	5781,40
1403,00	5749,15
1404,00	5754,58
1405,00	5784,54
1406,00	5802,52
1407,00	5810,43
1408,00	5855,32
1409,00	5860,94
1410,00	5858,78
1411,00	5853,73
1412,00	5857,61
1413,00	5857,85
1414,00	5882,61
1415,00	5814,08
1416,00	5800,83
1417,00	5825,45
1418,00	5823,53
1419,00	5855,27
1420,00	5798,58
1421,00	5847,22
1422,00	5773,77
1423,00	5772,04
1424,00	5725,75
1425,00	5652,49
1426,00	5670,60
1427,00	5655,44
1428,00	5669,34
1429,00	5641,95
1430,00	5607,92
1431,00	5639,10
1432,00	5659,42
1433,00	5655,86
1434,00	5603,71
1435,00	5569,02
1436,00	5562,89
1437,00	5557,46
1438,00	5562,28
1439,00	5562,38
1440,00	5601,56
1441,00	5577,59
1442,00	5569,12
1443,00	5554,18
1444,00	5548,94
1445,00	5584,52
1446,00	5648,13
1447,00	5607,92
1448,00	5616,96
1449,00	5566,96
1450,00	5516,17
1451,00	5517,77
1452,00	5571,60
1453,00	5529,70
1454,00	5518,28
1455,00	5521,14
1456,00	5507,94
1457,00	5520,25
1458,00	5548,66
1459,00	5538,74
1460,00	5487,76
1461,00	5470,96
1462,00	5390,77
1463,00	5381,13
1464,00	5435,10
1465,00	5413,28
1466,00	5369,24
1467,00	5354,07
1468,00	5321,72
1469,00	5321,30
1470,00	5295,37
1471,00	5241,54
1472,00	5269,15
1473,00	5257,69
1474,00	5275,38
1475,00	5228,15
1476,00	5209,52
1477,00	5189,53
1478,00	5189,53
1479,00	5163,83
1480,00	5166,22
1481,00	5143,51
1482,00	5167,76
1483,00	5181,24
1484,00	5151,71
1485,00	5111,82
1486,00	5158,31
1487,00	5185,69
1488,00	5165,38
1489,00	5155,36
1490,00	5046,52
1491,00	4967,46
1492,00	4882,26
1493,00	4898,65
1494,00	4919,20
1495,00	5034,12
1496,00	5097,31
1497,00	5184,94
1498,00	5205,12
1499,00	5218,08
1500,00	5227,49
1501,00	5244,44
1502,00	5195,05
1503,00	5150,82
1504,00	5085,80
1505,00	5062,86
1506,00	4987,31
1507,00	4910,87
1508,00	4951,68
1509,00	4951,50
1510,00	5031,82
1511,00	5072,41
1512,00	5063,28
1513,00	5118,89
1514,00	5088,42
1515,00	5093,47
1516,00	5089,35
1517,00	5091,74
1518,00	5062,39
1519,00	5031,64
1520,00	5070,96
1521,00	5063,94
1522,00	5049,99
1523,00	5046,24
1524,00	5011,79
1525,00	4988,01
1526,00	4916,44
1527,00	4882,40
1528,00	4838,59
1529,00	4844,30
1530,00	4858,06
1531,00	4762,80
1532,00	4749,13
1533,00	4697,13
1534,00	4582,58
1535,00	4430,12
1536,00	4254,06
1537,00	4125,38
1538,00	3944,97
1539,00	3918,34
1540,00	4090,51
1541,00	4268,62
1542,00	4462,89
1543,00	4536,99
1544,00	4636,98
1545,00	4640,07
1546,00	4696,80
1547,00	4729,10
1548,00	4789,11
1549,00	4809,57
1550,00	4826,84
1551,00	4804,32
1552,00	4792,06
1553,00	4826,00
1554,00	4823,24
1555,00	4768,47
1556,00	4809,01
1557,00	4778,16
1558,00	4783,68
1559,00	4712,39
1560,00	4723,67
1561,00	4756,72
1562,00	4774,55
1563,00	4797,35
1564,00	4779,98
1565,00	4803,01
1566,00	4771,98
1567,00	4787,33
1568,00	4771,70
1569,00	4754,52
1570,00	4761,40
1571,00	4760,88
1572,00	4774,18
1573,00	4764,07
1574,00	4767,44
1575,00	4780,22
1576,00	4770,95
1577,00	4774,46
1578,00	4755,13
1579,00	4762,15
1580,00	4758,92
1581,00	4739,16
1582,00	4745,25
1583,00	4705,46
1584,00	4664,22
1585,00	4681,73
1586,00	4658,46
1587,00	4604,54
1588,00	4594,99
1589,00	4622,51
1590,00	4628,69
1591,00	4617,13
1592,00	4656,78
1593,00	4600,18
1594,00	4608,51
1595,00	4622,14
1596,00	4606,27
1597,00	4625,32
1598,00	4610,15
1599,00	4611,09
1600,00	4614,46
1601,00	4592,08
1602,00	4599,11
1603,00	4578,28
1604,00	4557,40
1605,00	4529,83
1606,00	4538,39
1607,00	4500,94
1608,00	4494,25
1609,00	4500,24
1610,00	4473,84
1611,00	4493,83
1612,00	4510,35
1613,00	4486,20
1614,00	4475,85
1615,00	4482,64
1616,00	4456,75
1617,00	4420,80
1618,00	4385,70
1619,00	4438,17
1620,00	4434,29
1621,00	4466,40
1622,00	4426,61
1623,00	4435,32
1624,00	4435,32
1625,00	4409,80
1626,00	4411,68
1627,00	4408,45
1628,00	4395,29
1629,00	4376,90
1630,00	4371,00
1631,00	4326,81
1632,00	4337,11
1633,00	4332,28
1634,00	4324,94
1635,00	4317,21
1636,00	4307,33
1637,00	4285,75
1638,00	4297,32
1639,00	4321,80
1640,00	4284,30
1641,00	4281,31
1642,00	4216,01
1643,00	4230,14
1644,00	4178,42
1645,00	4192,09
1646,00	4163,63
1647,00	4188,72
1648,00	4187,97
1649,00	4182,26
1650,00	4187,92
1651,00	4184,32
1652,00	4170,51
1653,00	4190,92
1654,00	4192,32
1655,00	4217,69
1656,00	4180,34
1657,00	4180,99
1658,00	4158,10
1659,00	4166,43
1660,00	4160,21
1661,00	4143,45
1662,00	4129,69
1663,00	4119,62
1664,00	4105,91
1665,00	4108,48
1666,00	4076,98
1667,00	4062,80
1668,00	4051,56
1669,00	4048,00
1670,00	4041,87
1671,00	4049,03
1672,00	4047,25
1673,00	4031,01
1674,00	4084,28
1675,00	4052,68
1676,00	4056,71
1677,00	4035,46
1678,00	4023,61
1679,00	4010,88
1680,00	3984,86
1681,00	3982,52
1682,00	4000,54
1683,00	3973,01
1684,00	3948,58
1685,00	3976,62
1686,00	3977,46
1687,00	3978,21
1688,00	3951,76
1689,00	3977,46
1690,00	3973,01
1691,00	3922,64
1692,00	3895,07
1693,00	3919,84
1694,00	3922,27
1695,00	3922,18
1696,00	3909,68
1697,00	3903,08
1698,00	3889,64
1699,00	3881,45
1700,00	3902,56
1701,00	3872,14
1702,00	3862,21
1703,00	3834,87
1704,00	3849,57
1705,00	3841,61
1706,00	3831,22
1707,00	3819,29
1708,00	3823,45
1709,00	3808,57
1710,00	3806,18
1711,00	3809,55
1712,00	3801,87
1713,00	3811,61
1714,00	3805,15
1715,00	3793,96
1716,00	3787,31
1717,00	3762,04
1718,00	3780,53
1719,00	3798,69
1720,00	3756,79
1721,00	3742,89
1722,00	3735,49
1723,00	3734,00
1724,00	3755,39
1725,00	3722,90
1726,00	3708,16
1727,00	3702,68
1728,00	3700,06
1729,00	3682,74
1730,00	3663,45
1731,00	3615,94
1732,00	3613,60
1733,00	3573,44
1734,00	3584,16
1735,00	3606,53
1736,00	3610,56
1737,00	3630,78
1738,00	3649,32
1739,00	3630,40
1740,00	3597,87
1741,00	3589,35
1742,00	3570,07
1743,00	3550,55
1744,00	3535,80
1745,00	3531,45
1746,00	3552,09
1747,00	3503,97
1748,00	3449,20
1749,00	3326,93
1750,00	3133,65
1751,00	2925,25
1752,00	2751,49
1753,00	2675,09
1754,00	2658,90
1755,00	2662,41
1756,00	2701,59
1757,00	2790,25
1758,00	2887,99
1759,00	2999,49
1760,00	3069,19
1761,00	3155,28
1762,00	3149,89
1763,00	3143,62
1764,00	3103,55
1765,00	3100,41
1766,00	3077,15
1767,00	3026,83
1768,00	3055,15
1769,00	3018,45
1770,00	3025,42
1771,00	3031,65
1772,00	3035,91
1773,00	3066,15
1774,00	3065,59
1775,00	3082,53
1776,00	3115,39
1777,00	3096,48
1778,00	3082,86
1779,00	3132,67
1780,00	3151,67
1781,00	3138,28
1782,00	3163,98
1783,00	3162,16
1784,00	3132,39
1785,00	3136,04
1786,00	3143,01
1787,00	3166,04
1788,00	3161,22
1789,00	3184,02
1790,00	3161,31
1791,00	3134,96
1792,00	3118,76
1793,00	3109,64
1794,00	3123,21
1795,00	3076,73
1796,00	3087,49
1797,00	3080,85
1798,00	3060,91
1799,00	3053,84
1800,00	3059,31
1801,00	3054,31
1802,00	3011,71
1803,00	2972,53
1804,00	2982,40
1805,00	2966,58
1806,00	2980,53
1807,00	3012,92
1808,00	3000,43
1809,00	2993,40
1810,00	3036,61
1811,00	3035,16
1812,00	3017,93
1813,00	3008,76
1814,00	3015,22
1815,00	2994,62
1816,00	3016,06
1817,00	3014,84
1818,00	2998,98
1819,00	3027,34
1820,00	3052,85
1821,00	3078,18
1822,00	3090,54
1823,00	3123,49
1824,00	3095,59
1825,00	3096,29
1826,00	3090,96
1827,00	3094,56
1828,00	3066,01
1829,00	3020,79
1830,00	3008,01
1831,00	2999,58
1832,00	3017,98
1833,00	3044,76
1834,00	3011,85
1835,00	3012,55
1836,00	2988,91
1837,00	2952,35
1838,00	2937,84
1839,00	2931,05
1840,00	2923,94
1841,00	2925,95
1842,00	2920,47
1843,00	2917,06
1844,00	2935,08
1845,00	2920,29
1846,00	2905,49
1847,00	2893,18
1848,00	2899,22
1849,00	2872,59
1850,00	2831,44
1851,00	2822,45
1852,00	2848,10
1853,00	2846,09
1854,00	2853,49
1855,00	2853,11
1856,00	2850,77
1857,00	2830,08
1858,00	2822,17
1859,00	2790,20
1860,00	2815,43
1861,00	2817,63
1862,00	2813,79
1863,00	2783,18
1864,00	2768,95
1865,00	2784,02
1866,00	2742,31
1867,00	2770,12
1868,00	2810,00
1869,00	2831,25
1870,00	2850,77
1871,00	2852,41
1872,00	2846,51
1873,00	2812,25
1874,00	2788,05
1875,00	2804,01
1876,00	2784,77
1877,00	2821,33
1878,00	2828,54
1879,00	2812,62
1880,00	2808,55
1881,00	2808,74
1882,00	2821,80
1883,00	2820,11
1884,00	2787,34
1885,00	2766,51
1886,00	2747,04
1887,00	2755,42
1888,00	2751,44
1889,00	2770,12
1890,00	2746,10
1891,00	2738,99
1892,00	2741,66
1893,00	2731,92
1894,00	2735,10
1895,00	2717,03
1896,00	2727,75
1897,00	2750,55
1898,00	2718,63
1899,00	2748,40
1900,00	2753,27
1901,00	2727,94
1902,00	2738,47
1903,00	2723,03
1904,00	2715,72
1905,00	2712,07
1906,00	2725,32
1907,00	2709,97
1908,00	2694,75
1909,00	2689,09
1910,00	2654,50
1911,00	2682,11
1912,00	2674,72
1913,00	2648,97
1914,00	2659,50
1915,00	2669,85
1916,00	2663,20
1917,00	2638,02
1918,00	2666,10
1919,00	2615,13
1920,00	2635,86
1921,00	2627,53
1922,00	2628,70
1923,00	2628,70
1924,00	2622,76
1925,00	2629,92
1926,00	2615,55
1927,00	2620,00
1928,00	2607,54
1929,00	2595,70
1930,00	2588,91
1931,00	2592,33
1932,00	2580,39
1933,00	2579,32
1934,00	2563,40
1935,00	2562,61
1936,00	2572,16
1937,00	2547,81
1938,00	2526,33
1939,00	2566,12
1940,00	2541,73
1941,00	2544,16
1942,00	2533,58
1943,00	2522,44
1944,00	2499,69
1945,00	2498,01
1946,00	2502,17
1947,00	2500,21
1948,00	2508,54
1949,00	2501,00
1950,00	2502,45
1951,00	2490,99
1952,00	2486,07
1953,00	2475,77
1954,00	2460,00
1955,00	2445,58
1956,00	2408,97
1957,00	2382,15
1958,00	2384,63
1959,00	2392,59
1960,00	2388,47
1961,00	2389,97
1962,00	2385,99
1963,00	2392,17
1964,00	2382,57
1965,00	2361,04
1966,00	2358,14
1967,00	2336,09
1968,00	2300,33
1969,00	2263,91
1970,00	2219,06
1971,00	2171,17
1972,00	2158,25
1973,00	2115,00
1974,00	2085,37
1975,00	2030,65
1976,00	2022,08
1977,00	2005,56
1978,00	1976,82
1979,00	1985,99
1980,00	2010,05
1981,00	1991,09
1982,00	1979,77
1983,00	1976,77
1984,00	1928,04
1985,00	1887,55
1986,00	1865,78
1987,00	1925,79
1988,00	1945,31
1989,00	1908,52
1990,00	1872,80
1991,00	1877,11
1992,00	1875,10
1993,00	1896,63
1994,00	1891,86
1995,00	1884,88
1996,00	1873,18
1997,00	1829,46
1998,00	1873,55
1999,00	1859,32
2000,00	1853,70
2001,00	1871,87
2002,00	1916,38
2003,00	1936,47
2004,00	1962,77
2005,00	2012,67
2006,00	2026,44
2007,00	2049,65
2008,00	2040,62
2009,00	2028,59
2010,00	2055,60
2011,00	2067,35
2012,00	2066,37
2013,00	2048,95
2014,00	2028,64
2015,00	2026,58
2016,00	2035,47
2017,00	2020,96
2018,00	2005,51
2019,00	2003,83
2020,00	1951,21
2021,00	1902,67
2022,00	1845,79
2023,00	1831,98
2024,00	1830,44
2025,00	1868,03
2026,00	1845,75
2027,00	1815,23
2028,00	1794,63
2029,00	1817,43
2030,00	1798,47
2031,00	1802,87
2032,00	1801,09
2033,00	1809,75
2034,00	1815,79
2035,00	1805,68
2036,00	1774,41
2037,00	1728,58
2038,00	1747,02
2039,00	1787,75
2040,00	1790,65
2041,00	1778,71
2042,00	1795,05
2043,00	1779,60
2044,00	1765,00
2045,00	1762,89
2046,00	1762,89
2047,00	1762,89
>>>>>End Processed Spectral Data<<<<<
