SpectraSuite Datei
++++++++++++++++++++++++++++++++++++
Datum: Thu Sep 19 18:14:10 CEST 2024
Benutzer: Student
Dark-Spektrum vorhanden: Nein
Referenz-Spektrum vorhanden: Nein
Zahl der probierten Teilspektren: 1
Spektrometer: USB2+H15728
Integrationszeit (usec): 1000 (USB2+H15728)
Spektren Durchschnitt berechnet: 1 (USB2+H15728)
Boxcar Glättung: 0 (USB2+H15728)
Dunkelstromkorrektur: Nein (USB2+H15728)
Puls/Lampe aktiviert: Nein (USB2+H15728)
Correct for Detector Non-linearity: Nein (USB2+H15728)
Streulichtkorrektur: Nein (USB2+H15728)
Anzahl Pixel in verarbeitetem Spektrum: 2048
>>>>>Begin Processed Spectral Data<<<<<
0,00	713,86
1,00	713,86
2,00	713,86
3,00	699,82
4,00	674,07
5,00	706,84
6,00	706,84
7,00	671,73
8,00	695,14
9,00	711,52
10,00	770,04
11,00	746,63
12,00	716,20
13,00	795,78
14,00	767,70
15,00	830,89
16,00	805,14
17,00	854,30
18,00	908,13
19,00	926,85
20,00	905,79
21,00	912,81
22,00	891,74
23,00	1306,02
24,00	2324,15
25,00	2605,02
26,00	2684,59
27,00	2621,40
28,00	2750,13
29,00	2743,11
30,00	2799,28
31,00	2775,88
32,00	2843,75
33,00	2888,22
34,00	2949,08
35,00	2970,14
36,00	2876,52
37,00	2899,92
38,00	2808,64
39,00	2970,14
40,00	3019,29
41,00	3143,34
42,00	3162,06
43,00	3084,83
44,00	3047,38
45,00	3059,08
46,00	2979,50
47,00	3082,49
48,00	3332,92
49,00	3218,24
50,00	3208,87
51,00	3215,90
52,00	3122,27
53,00	3105,89
54,00	2998,23
55,00	3148,02
56,00	3178,45
57,00	3323,56
58,00	3337,60
59,00	3349,31
60,00	3328,24
61,00	3281,43
62,00	3548,25
63,00	3459,31
64,00	3463,99
65,00	3648,90
66,00	3707,41
67,00	3740,18
68,00	3794,01
69,00	3932,10
70,00	3918,06
71,00	3786,99
72,00	3770,60
73,00	3590,38
74,00	3421,86
75,00	3433,57
76,00	3473,36
77,00	3684,00
78,00	3866,56
79,00	3845,50
80,00	4060,83
81,00	4074,87
82,00	4243,39
83,00	4238,71
84,00	4402,55
85,00	4334,67
86,00	4210,62
87,00	4308,93
88,00	4315,95
89,00	4198,92
90,00	4255,09
91,00	4292,54
92,00	4255,09
93,00	4454,04
94,00	4346,37
95,00	4575,75
96,00	4355,74
97,00	4332,33
98,00	4416,59
99,00	4662,35
100,00	4697,46
101,00	4641,28
102,00	4535,96
103,00	4678,73
104,00	4552,34
105,00	4727,88
106,00	4947,89
107,00	5055,56
108,00	4870,65
109,00	5118,75
110,00	4910,44
111,00	4882,36
112,00	4734,90
113,00	4664,69
114,00	4809,80
115,00	4849,59
116,00	4805,12
117,00	4791,08
118,00	4975,98
119,00	4978,32
120,00	5149,18
121,00	4997,04
122,00	5036,83
123,00	5029,81
124,00	5121,09
125,00	4990,02
126,00	5041,51
127,00	5025,13
128,00	4957,25
129,00	5287,27
130,00	5350,46
131,00	5383,23
132,00	5668,78
133,00	5528,35
134,00	5652,39
135,00	5628,99
136,00	5572,82
137,00	5680,48
138,00	5600,90
139,00	5376,21
140,00	5198,33
141,00	5118,75
142,00	5188,97
143,00	5301,31
144,00	5380,89
145,00	5621,97
146,00	5741,33
147,00	5659,42
148,00	5619,63
149,00	5689,84
150,00	5928,58
151,00	5996,45
152,00	5774,10
153,00	5666,44
154,00	5881,77
155,00	5760,06
156,00	5820,91
157,00	5923,90
158,00	5764,74
159,00	5916,87
160,00	5937,94
161,00	6190,72
162,00	6179,01
163,00	6225,82
164,00	5982,41
165,00	5867,72
166,00	5673,46
167,00	5764,74
168,00	6045,60
169,00	6242,21
170,00	6518,39
171,00	6427,11
172,00	6345,19
173,00	6169,65
174,00	6087,73
175,00	6001,13
176,00	6015,18
177,00	6153,27
178,00	6052,63
179,00	5830,27
180,00	5577,50
181,00	5383,23
182,00	5172,58
183,00	5095,35
184,00	5085,98
185,00	5121,09
186,00	5069,60
187,00	5444,09
188,00	6136,88
189,00	6743,08
190,00	7482,69
191,00	7822,07
192,00	7562,27
193,00	7187,79
194,00	7300,13
195,00	7080,12
196,00	7358,64
197,00	7625,47
198,00	7922,71
199,00	7903,99
200,00	7838,45
201,00	7307,15
202,00	7136,29
203,00	6885,86
204,00	6871,81
205,00	7391,41
206,00	7786,96
207,00	8180,17
208,00	8245,71
209,00	8095,91
210,00	8023,36
211,00	8397,84
212,00	8496,14
213,00	8674,03
214,00	8933,82
215,00	9158,52
216,00	8931,48
217,00	9125,75
218,00	9163,20
219,00	9008,72
220,00	8903,40
221,00	8807,44
222,00	8990,00
223,00	8755,94
224,00	8648,28
225,00	8580,40
226,00	8533,59
227,00	7918,03
228,00	8072,51
229,00	8685,73
230,00	8702,11
231,00	9109,36
232,00	9537,68
233,00	9425,34
234,00	9432,36
235,00	9490,87
236,00	9376,19
237,00	9413,63
238,00	9324,69
239,00	9364,48
240,00	9736,63
241,00	9994,09
242,00	10253,89
243,00	10473,90
244,00	10026,86
245,00	10572,20
246,00	10775,83
247,00	11044,99
248,00	10846,04
249,00	10677,52
250,00	10593,26
251,00	11000,52
252,00	10803,91
253,00	10574,54
254,00	10759,44
255,00	10822,64
256,00	10853,06
257,00	10836,68
258,00	11162,01
259,00	11082,44
260,00	11185,42
261,00	11597,35
262,00	11590,33
263,00	11276,70
264,00	10988,82
265,00	11030,94
266,00	10689,23
267,00	10298,36
268,00	10403,68
269,00	10693,91
270,00	10995,84
271,00	11173,72
272,00	11358,62
273,00	11592,67
274,00	11688,64
275,00	11777,58
276,00	12138,02
277,00	12013,97
278,00	12138,02
279,00	11960,14
280,00	11941,41
281,00	11749,49
282,00	12042,06
283,00	12177,81
284,00	12109,93
285,00	11906,31
286,00	11908,65
287,00	12241,00
288,00	12238,66
289,00	12086,53
290,00	12945,50
291,00	12877,63
292,00	12971,25
293,00	13390,20
294,00	13219,35
295,00	13027,42
296,00	12891,67
297,00	12861,24
298,00	13160,83
299,00	13001,68
300,00	12837,84
301,00	12659,96
302,00	12882,31
303,00	12608,47
304,00	12233,98
305,00	12100,57
306,00	11988,22
307,00	11726,08
308,00	12142,70
309,00	12353,35
310,00	12594,42
311,00	12924,44
312,00	13249,77
313,00	12788,69
314,00	12975,93
315,00	13032,10
316,00	12966,57
317,00	12718,47
318,00	12849,54
319,00	12601,44
320,00	13497,87
321,00	13247,43
322,00	13750,65
323,00	13532,98
324,00	14115,77
325,00	13745,97
326,00	13965,98
327,00	13832,57
328,00	13839,59
329,00	14190,67
330,00	14118,11
331,00	14083,00
332,00	13813,84
333,00	14284,29
334,00	13909,80
335,00	13324,67
336,00	13717,88
337,00	13841,93
338,00	14288,97
339,00	14305,35
340,00	14485,58
341,00	14272,59
342,00	13954,27
343,00	14373,23
344,00	14272,59
345,00	14647,07
346,00	14759,42
347,00	15126,88
348,00	14740,69
349,00	15206,46
350,00	15215,82
351,00	15403,07
352,00	15810,32
353,00	15424,13
354,00	15700,31
355,00	15742,44
356,00	15768,19
357,00	16163,74
358,00	16086,50
359,00	16084,16
360,00	16224,59
361,00	16306,51
362,00	16622,48
363,00	16257,36
364,00	16395,45
365,00	16432,90
366,00	16329,92
367,00	16482,05
368,00	16212,89
369,00	16788,66
370,00	16145,02
371,00	16554,61
372,00	16238,64
373,00	16255,02
374,00	16243,32
375,00	16865,90
376,00	17057,82
377,00	17106,98
378,00	17511,89
379,00	16898,67
380,00	17088,25
381,00	16456,31
382,00	16116,93
383,00	15906,28
384,00	15889,90
385,00	16545,25
386,00	16936,12
387,00	16989,95
388,00	17064,85
389,00	16943,14
390,00	17275,49
391,00	17233,36
392,00	17142,08
393,00	17181,87
394,00	16957,18
395,00	17062,51
396,00	17322,30
397,00	17057,82
398,00	17490,82
399,00	17352,73
400,00	16746,53
401,00	16893,99
402,00	16477,37
403,00	16517,16
404,00	16601,42
405,00	17383,16
406,00	17174,85
407,00	17509,55
408,00	17682,75
409,00	17980,00
410,00	17895,74
411,00	18684,50
412,00	19161,97
413,00	18909,19
414,00	18532,36
415,00	18574,49
416,00	18452,78
417,00	18078,30
418,00	17832,54
419,00	18246,82
420,00	18366,18
421,00	18712,58
422,00	18644,71
423,00	18869,40
424,00	19164,31
425,00	19311,76
426,00	19293,04
427,00	19234,52
428,00	19435,81
429,00	19655,82
430,00	19288,35
431,00	19243,88
432,00	19187,71
433,00	19398,36
434,00	19363,25
435,00	19143,24
436,00	19234,52
437,00	18993,45
438,00	18759,39
439,00	19103,45
440,00	19548,15
441,00	20170,74
442,00	20086,48
443,00	20762,89
444,00	20840,13
445,00	20709,06
446,00	20566,29
447,00	20484,37
448,00	20432,88
449,00	20318,19
450,00	20023,28
451,00	20355,64
452,00	21081,21
453,00	20959,50
454,00	21778,68
455,00	21820,81
456,00	21259,09
457,00	21315,26
458,00	21165,46
459,00	21504,84
460,00	21411,22
461,00	21359,73
462,00	21205,25
463,00	21546,97
464,00	22024,44
465,00	22134,45
466,00	22555,74
467,00	22239,77
468,00	22242,11
469,00	22808,52
470,00	22345,09
471,00	22141,47
472,00	22120,40
473,00	22445,74
474,00	22253,81
475,00	22405,95
476,00	22750,01
477,00	22485,53
478,00	22366,16
479,00	22230,41
480,00	22616,60
481,00	22274,88
482,00	22607,23
483,00	22948,95
484,00	22761,71
485,00	22499,57
486,00	22349,78
487,00	21972,95
488,00	20816,72
489,00	19807,95
490,00	18633,00
491,00	18029,15
492,00	17411,25
493,00	18106,38
494,00	19697,95
495,00	20884,60
496,00	21656,98
497,00	21341,00
498,00	21509,52
499,00	22008,06
500,00	23049,60
501,00	23028,53
502,00	23012,15
503,00	24238,59
504,00	23468,55
505,00	23662,82
506,00	22848,31
507,00	22373,18
508,00	22558,08
509,00	23136,20
510,00	23604,30
511,00	25514,18
512,00	25507,16
513,00	25507,16
514,00	25364,39
515,00	24713,72
516,00	25090,54
517,00	25099,90
518,00	25092,88
519,00	24713,72
520,00	24870,53
521,00	24744,14
522,00	25085,86
523,00	24638,82
524,00	23440,47
525,00	22923,21
526,00	23463,87
527,00	24350,93
528,00	24964,15
529,00	26031,44
530,00	26471,46
531,00	26508,91
532,00	26223,36
533,00	25947,18
534,00	25062,46
535,00	25198,21
536,00	25619,50
537,00	26284,22
538,00	27250,86
539,00	27477,89
540,00	27463,85
541,00	27496,61
542,00	27541,08
543,00	27534,06
544,00	27653,43
545,00	26239,75
546,00	26164,85
547,00	25788,02
548,00	27164,26
549,00	28229,20
550,00	27906,21
551,00	27924,93
552,00	27414,69
553,00	27489,59
554,00	27962,38
555,00	28259,63
556,00	28830,72
557,00	28762,84
558,00	27716,62
559,00	27112,77
560,00	26291,24
561,00	26022,08
562,00	25593,76
563,00	26974,67
564,00	28336,87
565,00	28336,87
566,00	28718,37
567,00	28591,98
568,00	28299,42
569,00	28727,74
570,00	28229,20
571,00	27470,87
572,00	27360,86
573,00	26986,38
574,00	27309,37
575,00	27278,94
576,00	27730,67
577,00	27555,13
578,00	27063,61
579,00	26749,98
580,00	26820,20
581,00	27452,14
582,00	27154,90
583,00	28393,04
584,00	28154,30
585,00	28664,54
586,00	28629,43
587,00	28982,85
588,00	29486,07
589,00	30153,12
590,00	29872,26
591,00	28947,75
592,00	28215,16
593,00	27576,19
594,00	27206,39
595,00	28070,04
596,00	29755,23
597,00	30670,38
598,00	30518,25
599,00	29757,57
600,00	29434,58
601,00	30185,89
602,00	31569,15
603,00	31529,36
604,00	31871,07
605,00	31718,94
606,00	31938,95
607,00	31791,50
608,00	31229,77
609,00	30410,58
610,00	30857,62
611,00	30962,95
612,00	31157,21
613,00	31372,54
614,00	30883,37
615,00	30639,95
616,00	30312,28
617,00	29575,01
618,00	30307,60
619,00	31475,52
620,00	31763,41
621,00	32568,55
622,00	33226,24
623,00	33331,57
624,00	33205,18
625,00	32795,59
626,00	31620,64
627,00	31440,42
628,00	31384,24
629,00	32730,05
630,00	33202,84
631,00	32767,50
632,00	31782,13
633,00	32240,88
634,00	32826,01
635,00	33020,28
636,00	33890,96
637,00	34183,52
638,00	34410,56
639,00	34611,84
640,00	34031,39
641,00	33624,14
642,00	32617,71
643,00	31812,56
644,00	31999,80
645,00	33214,54
646,00	33359,66
647,00	33769,25
648,00	33078,79
649,00	32811,97
650,00	32875,16
651,00	32304,07
652,00	31866,39
653,00	32687,92
654,00	32383,65
655,00	33446,26
656,00	33060,07
657,00	33659,24
658,00	34380,13
659,00	33872,23
660,00	34354,38
661,00	34106,29
662,00	34562,69
663,00	33827,76
664,00	33947,13
665,00	32229,18
666,00	29759,91
667,00	27908,55
668,00	26129,74
669,00	26623,59
670,00	27145,53
671,00	28140,26
672,00	32512,38
673,00	34450,35
674,00	34967,60
675,00	32128,53
676,00	28645,82
677,00	27105,74
678,00	28531,13
679,00	32940,70
680,00	33628,82
681,00	34052,45
682,00	33125,60
683,00	32954,74
684,00	33132,62
685,00	33867,55
686,00	35248,47
687,00	35693,17
688,00	35285,92
689,00	34483,11
690,00	33528,17
691,00	33574,98
692,00	33500,09
693,00	35138,46
694,00	35489,54
695,00	35370,18
696,00	34604,82
697,00	35737,64
698,00	37439,21
699,00	36917,27
700,00	35255,49
701,00	33046,02
702,00	32151,94
703,00	32425,78
704,00	34387,15
705,00	34763,98
706,00	35428,69
707,00	35522,31
708,00	36706,62
709,00	37188,77
710,00	36095,74
711,00	35590,19
712,00	36362,56
713,00	36708,96
714,00	36343,84
715,00	36631,72
716,00	36755,77
717,00	36460,87
718,00	35948,29
719,00	36030,21
720,00	35737,64
721,00	36051,27
722,00	35079,95
723,00	33511,79
724,00	32346,20
725,00	31470,84
726,00	31344,45
727,00	32250,24
728,00	31599,57
729,00	33219,22
730,00	32645,79
731,00	34167,14
732,00	36100,42
733,00	36708,96
734,00	35646,36
735,00	36112,13
736,00	36725,35
737,00	37984,55
738,00	38321,59
739,00	37769,22
740,00	36613,00
741,00	36968,76
742,00	36273,62
743,00	35599,55
744,00	35358,47
745,00	36126,17
746,00	37198,13
747,00	38405,85
748,00	38916,09
749,00	38700,76
750,00	37993,92
751,00	36236,17
752,00	37469,64
753,00	37301,12
754,00	37694,33
755,00	37521,13
756,00	37890,93
757,00	38710,12
758,00	37670,92
759,00	37291,76
760,00	34272,46
761,00	33266,03
762,00	32058,32
763,00	34106,29
764,00	36322,77
765,00	36336,82
766,00	37900,29
767,00	37921,36
768,00	37780,93
769,00	36100,42
770,00	37277,71
771,00	37596,03
772,00	36563,85
773,00	36215,11
774,00	35321,02
775,00	36423,42
776,00	37663,90
777,00	39292,91
778,00	39903,79
779,00	40037,20
780,00	39927,20
781,00	39634,63
782,00	38387,13
783,00	37741,14
784,00	36814,29
785,00	34998,03
786,00	33741,16
787,00	33663,93
788,00	35805,52
789,00	37951,79
790,00	37982,21
791,00	38377,76
792,00	38040,73
793,00	37900,29
794,00	37652,20
795,00	38298,19
796,00	39173,55
797,00	37687,31
798,00	36020,84
799,00	35442,73
800,00	34941,86
801,00	34862,28
802,00	35278,89
803,00	35175,91
804,00	36247,88
805,00	36793,22
806,00	36514,70
807,00	35211,02
808,00	35718,92
809,00	35812,54
810,00	35611,25
811,00	34314,59
812,00	34562,69
813,00	35814,88
814,00	36226,81
815,00	37106,85
816,00	37198,13
817,00	36622,36
818,00	37092,81
819,00	37081,11
820,00	38639,90
821,00	38047,75
822,00	37090,47
823,00	36322,77
824,00	35049,52
825,00	33516,47
826,00	34979,31
827,00	37113,87
828,00	38375,42
829,00	38244,35
830,00	38398,83
831,00	37310,48
832,00	36210,43
833,00	37446,23
834,00	39218,02
835,00	39243,76
836,00	37914,34
837,00	36353,20
838,00	35161,87
839,00	35950,63
840,00	36854,08
841,00	35709,55
842,00	36126,17
843,00	36917,27
844,00	38157,75
845,00	38349,68
846,00	39206,31
847,00	39140,78
848,00	38132,01
849,00	36685,56
850,00	36032,55
851,00	36500,65
852,00	36849,39
853,00	35496,56
854,00	35859,35
855,00	36847,05
856,00	37158,34
857,00	36950,04
858,00	37914,34
859,00	38663,31
860,00	38759,27
861,00	38347,34
862,00	38213,93
863,00	38230,31
864,00	37787,95
865,00	37818,38
866,00	38003,28
867,00	37986,89
868,00	35730,62
869,00	35374,86
870,00	36128,51
871,00	36215,11
872,00	35629,98
873,00	36938,33
874,00	38349,68
875,00	39037,80
876,00	38852,89
877,00	38132,01
878,00	37806,67
879,00	37596,03
880,00	36774,50
881,00	36268,94
882,00	37614,75
883,00	37867,53
884,00	37333,89
885,00	37116,22
886,00	37614,75
887,00	38232,65
888,00	38185,84
889,00	38190,52
890,00	38150,73
891,00	38466,70
892,00	37731,78
893,00	37839,44
894,00	38792,04
895,00	38955,88
896,00	38141,37
897,00	38033,71
898,00	38733,53
899,00	38466,70
900,00	36472,57
901,00	35749,34
902,00	35482,52
903,00	35803,17
904,00	36563,85
905,00	36421,08
906,00	36856,42
907,00	36018,50
908,00	35309,32
909,00	35562,10
910,00	36273,62
911,00	37071,75
912,00	37567,94
913,00	37790,29
914,00	37633,47
915,00	37116,22
916,00	35206,34
917,00	32425,78
918,00	32924,32
919,00	34129,69
920,00	34768,66
921,00	35164,21
922,00	35901,48
923,00	35683,81
924,00	34569,71
925,00	33614,77
926,00	34567,37
927,00	35838,28
928,00	37596,03
929,00	38473,73
930,00	38651,61
931,00	38754,59
932,00	38801,40
933,00	36259,58
934,00	34260,76
935,00	34455,03
936,00	35604,23
937,00	36154,26
938,00	36444,48
939,00	35777,43
940,00	35171,23
941,00	35227,40
942,00	35290,60
943,00	35440,39
944,00	36479,59
945,00	35875,73
946,00	35826,58
947,00	35679,13
948,00	36229,15
949,00	36301,71
950,00	36634,06
951,00	36854,08
952,00	36313,41
953,00	36116,81
954,00	35768,07
955,00	35587,85
956,00	36187,02
957,00	34792,06
958,00	33589,03
959,00	33212,20
960,00	32676,22
961,00	32910,27
962,00	33474,34
963,00	34522,90
964,00	35639,34
965,00	35461,46
966,00	35775,09
967,00	36367,24
968,00	37003,87
969,00	37088,13
970,00	36339,16
971,00	35587,85
972,00	35337,41
973,00	35393,58
974,00	34314,59
975,00	33535,20
976,00	32631,75
977,00	32666,86
978,00	32465,57
979,00	32879,85
980,00	33654,56
981,00	34918,45
982,00	34586,10
983,00	35002,71
984,00	34483,11
985,00	34829,51
986,00	34281,83
987,00	34511,20
988,00	35281,24
989,00	34871,64
990,00	32739,41
991,00	31857,03
992,00	32411,74
993,00	32795,59
994,00	33001,55
995,00	32407,06
996,00	32470,25
997,00	32762,82
998,00	33724,78
999,00	34256,08
1000,00	33818,40
1001,00	34796,74
1002,00	34061,82
1003,00	34260,76
1004,00	34787,38
1005,00	34576,73
1006,00	35154,85
1007,00	35725,94
1008,00	34869,30
1009,00	35302,30
1010,00	34803,77
1011,00	34277,15
1012,00	33858,19
1013,00	33839,47
1014,00	32297,05
1015,00	32259,60
1016,00	32767,50
1017,00	32442,17
1018,00	31414,67
1019,00	31592,55
1020,00	32545,15
1021,00	33376,04
1022,00	33289,44
1023,00	32671,54
1024,00	32769,84
1025,00	33713,08
1026,00	34492,47
1027,00	34204,59
1028,00	34827,17
1029,00	34735,89
1030,00	33757,55
1031,00	33874,57
1032,00	33909,68
1033,00	33605,41
1034,00	32371,95
1035,00	31283,60
1036,00	31150,19
1037,00	30939,54
1038,00	31101,04
1039,00	31393,61
1040,00	32025,55
1041,00	32226,84
1042,00	32472,59
1043,00	33074,11
1044,00	33820,74
1045,00	33486,04
1046,00	33354,97
1047,00	34099,26
1048,00	34698,44
1049,00	34532,26
1050,00	34218,63
1051,00	33490,73
1052,00	33717,76
1053,00	33383,06
1054,00	33298,80
1055,00	32961,76
1056,00	32350,88
1057,00	31566,81
1058,00	32165,98
1059,00	32369,61
1060,00	33020,28
1061,00	32716,01
1062,00	33251,99
1063,00	33633,50
1064,00	33914,36
1065,00	33979,90
1066,00	34010,32
1067,00	34345,02
1068,00	34440,98
1069,00	34525,24
1070,00	34457,37
1071,00	34242,04
1072,00	35503,59
1073,00	34450,35
1074,00	34836,53
1075,00	33792,65
1076,00	32921,98
1077,00	32577,92
1078,00	32390,67
1079,00	31999,80
1080,00	31751,71
1081,00	31470,84
1082,00	31016,78
1083,00	30925,50
1084,00	31955,33
1085,00	31634,68
1086,00	32063,00
1087,00	33113,90
1088,00	32800,27
1089,00	33212,20
1090,00	33223,90
1091,00	33727,12
1092,00	34007,98
1093,00	33535,20
1094,00	33460,30
1095,00	33436,89
1096,00	33563,28
1097,00	32081,72
1098,00	31082,31
1099,00	30508,88
1100,00	29776,30
1101,00	28936,04
1102,00	27527,04
1103,00	24130,92
1104,00	26054,84
1105,00	27704,92
1106,00	27639,39
1107,00	25881,64
1108,00	28119,20
1109,00	28903,28
1110,00	29958,86
1111,00	31150,19
1112,00	31566,81
1113,00	31330,41
1114,00	31674,47
1115,00	31292,96
1116,00	31438,08
1117,00	31709,58
1118,00	31033,16
1119,00	31028,48
1120,00	30773,36
1121,00	29226,27
1122,00	29146,69
1123,00	29219,25
1124,00	29394,79
1125,00	29462,66
1126,00	30644,63
1127,00	30199,93
1128,00	30204,61
1129,00	30204,61
1130,00	30747,62
1131,00	30789,75
1132,00	31360,84
1133,00	31622,98
1134,00	31136,15
1135,00	30419,94
1136,00	29811,40
1137,00	30431,65
1138,00	30174,19
1139,00	29708,42
1140,00	29610,12
1141,00	30129,72
1142,00	30785,07
1143,00	30548,67
1144,00	30368,45
1145,00	28978,17
1146,00	29048,39
1147,00	29537,56
1148,00	30089,93
1149,00	30335,68
1150,00	30543,99
1151,00	30038,44
1152,00	30134,40
1153,00	30628,25
1154,00	30656,34
1155,00	31292,96
1156,00	30616,55
1157,00	29907,37
1158,00	29701,40
1159,00	30188,23
1160,00	31178,28
1161,00	30740,60
1162,00	29474,37
1163,00	30438,67
1164,00	30216,32
1165,00	30443,35
1166,00	30401,22
1167,00	30462,07
1168,00	30099,29
1169,00	29701,40
1170,00	29020,30
1171,00	29036,69
1172,00	29088,18
1173,00	29792,68
1174,00	29385,43
1175,00	29680,33
1176,00	29429,90
1177,00	28870,51
1178,00	29106,90
1179,00	30281,85
1180,00	29783,32
1181,00	29399,47
1182,00	29294,14
1183,00	29347,98
1184,00	29713,10
1185,00	29233,29
1186,00	28758,16
1187,00	29142,01
1188,00	29202,86
1189,00	29745,87
1190,00	30143,76
1191,00	29914,39
1192,00	29876,94
1193,00	29268,40
1194,00	29235,63
1195,00	29280,10
1196,00	29579,69
1197,00	29022,64
1198,00	29394,79
1199,00	28893,91
1200,00	28964,13
1201,00	29415,85
1202,00	29479,05
1203,00	29610,12
1204,00	30026,73
1205,00	29699,06
1206,00	29156,05
1207,00	28973,49
1208,00	28842,42
1209,00	29474,37
1210,00	29750,55
1211,00	29364,36
1212,00	29322,23
1213,00	28964,13
1214,00	28521,77
1215,00	29617,14
1216,00	28929,02
1217,00	28723,05
1218,00	29003,92
1219,00	28699,65
1220,00	28341,55
1221,00	28100,47
1222,00	27559,81
1223,00	27737,69
1224,00	27817,27
1225,00	28088,77
1226,00	27779,82
1227,00	27915,57
1228,00	27962,38
1229,00	27953,02
1230,00	27800,88
1231,00	27784,50
1232,00	27955,36
1233,00	27903,87
1234,00	27960,04
1235,00	28257,29
1236,00	28388,36
1237,00	27367,88
1238,00	26174,21
1239,00	27192,34
1240,00	27850,03
1241,00	27828,97
1242,00	27520,02
1243,00	27192,34
1244,00	27108,08
1245,00	26892,76
1246,00	27164,26
1247,00	26927,86
1248,00	26918,50
1249,00	26480,82
1250,00	25837,17
1251,00	25628,87
1252,00	26469,12
1253,00	26485,50
1254,00	26499,55
1255,00	26628,27
1256,00	26733,60
1257,00	26766,37
1258,00	26951,27
1259,00	25963,56
1260,00	24751,17
1261,00	25516,52
1262,00	26434,01
1263,00	25563,33
1264,00	26462,10
1265,00	26593,17
1266,00	26656,36
1267,00	26244,43
1268,00	25888,67
1269,00	25993,99
1270,00	25631,21
1271,00	25015,65
1272,00	24879,89
1273,00	25755,26
1274,00	25233,32
1275,00	24575,62
1276,00	22890,44
1277,00	23665,16
1278,00	24692,65
1279,00	24439,87
1280,00	24592,01
1281,00	23770,48
1282,00	24592,01
1283,00	25207,57
1284,00	25198,21
1285,00	24844,79
1286,00	25406,52
1287,00	25502,48
1288,00	25528,22
1289,00	25687,38
1290,00	25481,41
1291,00	25568,01
1292,00	25277,79
1293,00	24872,87
1294,00	24683,29
1295,00	23831,33
1296,00	24364,98
1297,00	24437,53
1298,00	24786,27
1299,00	24594,35
1300,00	24709,04
1301,00	24264,33
1302,00	24680,95
1303,00	24704,35
1304,00	24783,93
1305,00	24772,23
1306,00	24774,57
1307,00	24924,36
1308,00	24718,40
1309,00	24283,06
1310,00	23814,95
1311,00	23901,55
1312,00	24531,15
1313,00	23463,87
1314,00	23585,58
1315,00	24151,99
1316,00	24217,52
1317,00	24100,50
1318,00	24016,24
1319,00	24004,53
1320,00	22934,91
1321,00	22801,50
1322,00	22965,34
1323,00	23372,59
1324,00	23372,59
1325,00	22948,95
1326,00	22916,19
1327,00	22719,58
1328,00	22927,89
1329,00	22419,99
1330,00	22387,22
1331,00	21923,80
1332,00	23185,35
1333,00	23183,01
1334,00	23180,67
1335,00	21741,24
1336,00	21930,82
1337,00	21893,37
1338,00	22223,39
1339,00	22443,40
1340,00	22735,96
1341,00	22452,76
1342,00	22724,26
1343,00	22618,94
1344,00	22614,26
1345,00	22764,05
1346,00	22534,68
1347,00	22412,97
1348,00	22551,06
1349,00	22522,98
1350,00	21891,03
1351,00	20294,79
1352,00	19719,01
1353,00	20297,13
1354,00	20643,52
1355,00	20856,51
1356,00	21656,98
1357,00	21635,91
1358,00	21881,67
1359,00	21413,56
1360,00	21305,90
1361,00	21256,75
1362,00	21514,20
1363,00	21153,76
1364,00	20793,32
1365,00	21003,97
1366,00	20664,59
1367,00	20432,88
1368,00	20575,65
1369,00	21331,64
1370,00	21310,58
1371,00	21853,58
1372,00	21656,98
1373,00	21128,02
1374,00	21385,47
1375,00	20547,56
1376,00	20203,50
1377,00	20575,65
1378,00	19669,86
1379,00	20315,85
1380,00	20680,97
1381,00	20456,28
1382,00	21186,53
1383,00	21088,23
1384,00	21256,75
1385,00	21111,63
1386,00	20793,32
1387,00	21057,80
1388,00	21036,74
1389,00	20184,78
1390,00	19903,92
1391,00	20196,48
1392,00	20414,15
1393,00	20840,13
1394,00	20648,21
1395,00	20575,65
1396,00	20650,55
1397,00	20458,62
1398,00	21198,23
1399,00	20964,18
1400,00	21022,69
1401,00	21259,09
1402,00	20430,54
1403,00	20566,29
1404,00	20437,56
1405,00	20147,33
1406,00	20278,40
1407,00	19618,37
1408,00	20144,99
1409,00	20203,50
1410,00	20350,96
1411,00	20311,17
1412,00	20397,77
1413,00	20311,17
1414,00	20489,05
1415,00	20308,83
1416,00	20561,61
1417,00	20533,52
1418,00	20369,68
1419,00	20477,35
1420,00	20290,10
1421,00	20198,82
1422,00	20191,80
1423,00	20540,54
1424,00	20772,25
1425,00	20325,21
1426,00	20402,45
1427,00	19957,75
1428,00	19356,23
1429,00	19988,18
1430,00	19630,07
1431,00	19728,38
1432,00	18801,52
1433,00	19344,53
1434,00	19826,68
1435,00	19941,36
1436,00	19892,21
1437,00	19119,84
1438,00	19566,88
1439,00	19365,59
1440,00	18871,74
1441,00	19243,88
1442,00	19197,07
1443,00	19597,31
1444,00	19585,60
1445,00	18970,04
1446,00	18939,62
1447,00	19168,99
1448,00	19536,45
1449,00	19356,23
1450,00	19358,57
1451,00	19733,06
1452,00	19353,89
1453,00	18787,48
1454,00	18815,57
1455,00	19098,77
1456,00	19583,26
1457,00	19616,03
1458,00	18382,57
1459,00	19068,34
1460,00	19080,05
1461,00	19201,76
1462,00	19295,38
1463,00	19192,39
1464,00	18988,77
1465,00	18403,63
1466,00	18305,33
1467,00	18583,85
1468,00	18754,71
1469,00	18368,52
1470,00	18302,99
1471,00	18553,43
1472,00	18691,52
1473,00	18169,58
1474,00	17385,50
1475,00	18061,91
1476,00	18125,11
1477,00	18167,24
1478,00	17949,57
1479,00	17727,22
1480,00	17659,34
1481,00	17771,69
1482,00	17181,87
1483,00	17303,58
1484,00	17591,47
1485,00	17633,60
1486,00	17568,06
1487,00	17270,81
1488,00	17186,55
1489,00	17504,87
1490,00	17490,82
1491,00	17949,57
1492,00	17958,93
1493,00	17174,85
1494,00	17195,92
1495,00	16332,26
1496,00	15831,38
1497,00	15981,18
1498,00	16610,78
1499,00	16959,52
1500,00	17076,55
1501,00	18019,78
1502,00	17804,46
1503,00	17914,46
1504,00	17759,98
1505,00	17668,70
1506,00	17942,55
1507,00	17596,15
1508,00	17549,34
1509,00	16882,28
1510,00	16194,17
1511,00	16215,23
1512,00	16322,90
1513,00	16917,39
1514,00	17144,42
1515,00	17221,66
1516,00	17343,37
1517,00	17158,47
1518,00	17289,54
1519,00	17301,24
1520,00	17490,82
1521,00	17163,15
1522,00	16872,92
1523,00	16980,59
1524,00	17139,74
1525,00	17128,04
1526,00	17207,62
1527,00	17371,46
1528,00	16929,09
1529,00	16517,16
1530,00	16376,73
1531,00	16142,67
1532,00	16187,14
1533,00	16479,71
1534,00	16400,13
1535,00	15899,26
1536,00	15784,57
1537,00	15665,21
1538,00	15410,09
1539,00	15000,49
1540,00	14431,74
1541,00	12664,64
1542,00	10225,80
1543,00	12067,80
1544,00	13472,12
1545,00	14431,74
1546,00	14373,23
1547,00	15145,61
1548,00	15342,21
1549,00	15171,35
1550,00	15122,20
1551,00	15843,09
1552,00	16128,63
1553,00	16063,10
1554,00	15822,02
1555,00	16037,35
1556,00	15964,79
1557,00	16093,52
1558,00	15840,75
1559,00	16088,84
1560,00	16290,13
1561,00	15896,92
1562,00	15573,92
1563,00	15330,51
1564,00	15770,53
1565,00	15824,36
1566,00	15548,18
1567,00	15704,99
1568,00	15906,28
1569,00	15948,41
1570,00	16039,69
1571,00	15700,31
1572,00	15943,73
1573,00	15644,14
1574,00	15559,88
1575,00	15721,38
1576,00	15730,74
1577,00	15674,57
1578,00	16025,65
1579,00	15679,25
1580,00	15520,09
1581,00	15704,99
1582,00	15569,24
1583,00	15477,96
1584,00	15627,76
1585,00	15449,88
1586,00	15344,55
1587,00	15253,27
1588,00	15410,09
1589,00	15236,89
1590,00	14890,49
1591,00	14684,52
1592,00	14799,21
1593,00	14949,00
1594,00	15019,22
1595,00	15066,03
1596,00	14766,44
1597,00	14656,43
1598,00	14710,27
1599,00	14640,05
1600,00	15005,17
1601,00	14867,08
1602,00	14857,72
1603,00	14904,53
1604,00	14799,21
1605,00	14965,39
1606,00	14857,72
1607,00	14892,83
1608,00	14647,07
1609,00	14487,92
1610,00	14420,04
1611,00	14113,43
1612,00	14251,52
1613,00	14307,69
1614,00	14195,35
1615,00	14637,71
1616,00	14494,94
1617,00	14284,29
1618,00	14354,51
1619,00	14129,81
1620,00	14164,92
1621,00	13797,46
1622,00	13984,70
1623,00	13944,91
1624,00	13984,70
1625,00	14265,57
1626,00	14129,81
1627,00	14078,32
1628,00	14059,60
1629,00	13973,00
1630,00	14038,53
1631,00	13762,35
1632,00	13820,86
1633,00	13839,59
1634,00	13818,52
1635,00	13635,96
1636,00	13806,82
1637,00	13635,96
1638,00	13437,02
1639,00	13266,16
1640,00	13451,06
1641,00	13441,70
1642,00	13146,79
1643,00	13497,87
1644,00	13298,92
1645,00	13343,39
1646,00	13483,83
1647,00	13254,45
1648,00	12709,11
1649,00	12706,77
1650,00	13043,81
1651,00	12978,27
1652,00	12823,80
1653,00	13022,74
1654,00	12901,03
1655,00	12996,99
1656,00	12999,34
1657,00	12917,42
1658,00	12931,46
1659,00	12828,48
1660,00	12964,23
1661,00	13046,15
1662,00	12631,87
1663,00	12594,42
1664,00	12643,57
1665,00	12507,82
1666,00	12601,44
1667,00	12365,05
1668,00	12463,35
1669,00	12421,22
1670,00	12402,50
1671,00	12271,43
1672,00	12173,13
1673,00	12105,25
1674,00	12435,27
1675,00	12266,75
1676,00	12133,34
1677,00	12290,15
1678,00	12353,35
1679,00	12383,77
1680,00	12142,70
1681,00	12273,77
1682,00	12325,26
1683,00	12170,79
1684,00	11871,20
1685,00	11796,30
1686,00	12079,50
1687,00	11885,24
1688,00	11974,18
1689,00	12051,42
1690,00	11896,94
1691,00	12035,03
1692,00	11903,96
1693,00	11712,04
1694,00	12121,63
1695,00	11726,08
1696,00	11871,20
1697,00	11709,70
1698,00	11716,72
1699,00	11709,70
1700,00	11466,28
1701,00	11812,68
1702,00	11506,07
1703,00	11674,59
1704,00	11215,85
1705,00	11510,75
1706,00	11222,87
1707,00	11307,13
1708,00	11396,07
1709,00	11342,24
1710,00	11145,63
1711,00	11250,96
1712,00	11286,06
1713,00	11166,70
1714,00	11068,39
1715,00	11353,94
1716,00	11339,90
1717,00	11073,07
1718,00	11101,16
1719,00	11084,78
1720,00	10897,53
1721,00	10902,22
1722,00	10801,57
1723,00	10815,62
1724,00	10895,19
1725,00	10712,63
1726,00	10860,09
1727,00	10752,42
1728,00	10670,50
1729,00	10864,77
1730,00	10878,81
1731,00	10717,31
1732,00	10705,61
1733,00	10623,69
1734,00	10298,36
1735,00	10328,78
1736,00	10200,05
1737,00	10246,87
1738,00	10183,67
1739,00	10312,40
1740,00	10349,85
1741,00	10289,00
1742,00	10289,00
1743,00	10319,42
1744,00	10328,78
1745,00	10420,06
1746,00	10015,15
1747,00	10090,05
1748,00	9914,51
1749,00	10050,26
1750,00	9954,30
1751,00	10003,45
1752,00	10040,90
1753,00	9900,47
1754,00	9053,19
1755,00	7140,97
1756,00	6843,73
1757,00	6829,68
1758,00	6509,03
1759,00	6684,57
1760,00	6944,37
1761,00	7194,81
1762,00	7318,86
1763,00	7770,58
1764,00	8407,20
1765,00	8732,54
1766,00	8594,45
1767,00	8613,17
1768,00	8109,96
1769,00	8238,69
1770,00	7803,35
1771,00	8369,76
1772,00	8102,93
1773,00	7822,07
1774,00	8379,12
1775,00	7796,32
1776,00	7850,16
1777,00	8437,63
1778,00	7808,03
1779,00	8229,32
1780,00	8278,47
1781,00	8013,99
1782,00	8184,85
1783,00	8397,84
1784,00	8215,28
1785,00	8145,06
1786,00	8439,97
1787,00	8301,88
1788,00	8248,05
1789,00	8353,37
1790,00	8283,16
1791,00	8327,63
1792,00	8248,05
1793,00	8545,30
1794,00	8418,91
1795,00	8114,64
1796,00	8133,36
1797,00	8313,58
1798,00	8437,63
1799,00	7875,90
1800,00	7950,80
1801,00	8081,87
1802,00	8016,33
1803,00	7920,37
1804,00	8042,08
1805,00	7878,24
1806,00	7740,15
1807,00	7339,92
1808,00	7686,32
1809,00	7396,09
1810,00	7836,11
1811,00	7824,41
1812,00	7489,71
1813,00	7456,95
1814,00	7662,91
1815,00	7712,07
1816,00	7784,62
1817,00	7786,96
1818,00	7740,15
1819,00	7456,95
1820,00	7623,12
1821,00	7480,35
1822,00	7618,44
1823,00	7599,72
1824,00	7707,38
1825,00	7665,25
1826,00	7906,33
1827,00	7861,86
1828,00	7815,05
1829,00	8065,49
1830,00	7768,24
1831,00	7796,32
1832,00	7843,14
1833,00	7658,23
1834,00	7300,13
1835,00	7487,37
1836,00	7499,08
1837,00	7573,97
1838,00	7431,20
1839,00	7321,20
1840,00	7148,00
1841,00	6953,73
1842,00	6766,49
1843,00	6696,27
1844,00	6806,28
1845,00	6836,70
1846,00	6640,10
1847,00	6981,82
1848,00	7222,89
1849,00	7045,01
1850,00	6768,83
1851,00	6789,89
1852,00	7061,40
1853,00	6820,32
1854,00	6408,39
1855,00	6572,22
1856,00	6717,34
1857,00	6829,68
1858,00	6579,25
1859,00	6712,66
1860,00	6787,55
1861,00	6841,39
1862,00	6450,52
1863,00	6349,87
1864,00	6675,21
1865,00	6614,35
1866,00	6684,57
1867,00	6417,75
1868,00	6469,24
1869,00	6485,62
1870,00	6427,11
1871,00	6284,34
1872,00	6539,46
1873,00	6525,41
1874,00	6497,33
1875,00	6698,61
1876,00	6621,38
1877,00	6576,91
1878,00	6384,98
1879,00	6253,91
1880,00	6153,27
1881,00	6366,26
1882,00	6443,49
1883,00	6399,02
1884,00	6457,54
1885,00	6464,56
1886,00	6462,22
1887,00	6282,00
1888,00	6211,78
1889,00	6045,60
1890,00	6101,78
1891,00	6272,64
1892,00	6155,61
1893,00	6148,59
1894,00	6066,67
1895,00	6195,40
1896,00	6176,67
1897,00	6015,18
1898,00	6026,88
1899,00	6005,81
1900,00	5844,32
1901,00	6031,56
1902,00	5984,75
1903,00	5949,64
1904,00	5912,19
1905,00	6064,33
1906,00	6031,56
1907,00	5907,51
1908,00	5769,42
1909,00	5750,70
1910,00	5605,58
1911,00	5753,04
1912,00	5724,95
1913,00	5659,42
1914,00	5729,63
1915,00	5769,42
1916,00	5551,75
1917,00	5565,79
1918,00	5687,50
1919,00	5533,03
1920,00	5640,69
1921,00	5521,32
1922,00	5420,68
1923,00	5437,06
1924,00	5444,09
1925,00	5434,72
1926,00	5469,83
1927,00	5408,98
1928,00	5355,15
1929,00	5200,67
1930,00	5371,53
1931,00	5408,98
1932,00	5380,89
1933,00	5221,74
1934,00	5298,97
1935,00	5259,18
1936,00	5345,78
1937,00	5291,95
1938,00	5151,52
1939,00	5151,52
1940,00	5214,71
1941,00	5139,82
1942,00	5055,56
1943,00	5100,03
1944,00	5055,56
1945,00	5015,77
1946,00	4912,78
1947,00	4814,48
1948,00	4861,29
1949,00	4929,17
1950,00	4807,46
1951,00	4791,08
1952,00	4786,40
1953,00	4851,93
1954,00	4961,94
1955,00	4755,97
1956,00	4732,56
1957,00	4734,90
1958,00	4676,39
1959,00	4638,94
1960,00	4615,54
1961,00	4400,21
1962,00	4634,26
1963,00	4393,19
1964,00	4470,42
1965,00	4510,21
1966,00	4432,97
1967,00	4503,19
1968,00	4465,74
1969,00	4381,48
1970,00	4264,46
1971,00	4365,10
1972,00	4147,43
1973,00	4109,98
1974,00	3948,48
1975,00	3899,33
1976,00	3742,52
1977,00	3740,18
1978,00	3581,02
1979,00	3475,70
1980,00	3562,30
1981,00	3311,86
1982,00	3442,93
1983,00	3311,86
1984,00	3248,66
1985,00	3435,91
1986,00	3419,52
1987,00	3377,39
1988,00	3239,30
1989,00	3101,21
1990,00	2998,23
1991,00	3016,95
1992,00	3054,40
1993,00	3279,09
1994,00	3096,53
1995,00	2913,97
1996,00	2920,99
1997,00	2977,16
1998,00	3049,72
1999,00	3007,59
2000,00	2958,44
2001,00	2949,08
2002,00	2874,18
2003,00	2984,18
2004,00	2991,20
2005,00	2928,01
2006,00	2895,24
2007,00	2993,55
2008,00	3110,57
2009,00	3108,23
2010,00	3218,24
2011,00	3272,07
2012,00	3218,24
2013,00	3194,83
2014,00	3155,04
2015,00	3260,37
2016,00	3258,03
2017,00	3290,79
2018,00	3204,19
2019,00	3117,59
2020,00	3012,27
2021,00	3169,09
2022,00	3061,42
2023,00	3080,14
2024,00	3091,85
2025,00	3016,95
2026,00	2813,32
2027,00	2745,45
2028,00	2607,36
2029,00	2717,36
2030,00	2773,53
2031,00	2785,24
2032,00	2759,49
2033,00	2670,55
2034,00	2628,42
2035,00	2654,17
2036,00	2679,91
2037,00	2583,95
2038,00	2633,10
2039,00	2600,34
2040,00	2558,21
2041,00	2499,69
2042,00	2492,67
2043,00	2431,82
2044,00	2487,99
2045,00	2403,73
2046,00	2403,73
2047,00	2403,73
>>>>>End Processed Spectral Data<<<<<
