SpectraSuite Datei
++++++++++++++++++++++++++++++++++++
Datum: Wed Sep 18 15:07:26 CEST 2024
Benutzer: Student
Dark-Spektrum vorhanden: Nein
Referenz-Spektrum vorhanden: Nein
Zahl der probierten Teilspektren: 1
Spektrometer: USB2+H15728
Integrationszeit (usec): 90000 (USB2+H15728)
Spektren Durchschnitt berechnet: 50 (USB2+H15728)
Boxcar Glättung: 0 (USB2+H15728)
Dunkelstromkorrektur: Nein (USB2+H15728)
Puls/Lampe aktiviert: Nein (USB2+H15728)
Correct for Detector Non-linearity: Nein (USB2+H15728)
Streulichtkorrektur: Nein (USB2+H15728)
Anzahl Pixel in verarbeitetem Spektrum: 2048
>>>>>Begin Processed Spectral Data<<<<<
0,00	972,87
1,00	972,87
2,00	972,87
3,00	949,23
4,00	957,98
5,00	956,02
6,00	957,00
7,00	965,52
8,00	981,39
9,00	996,65
10,00	997,26
11,00	1023,09
12,00	1024,87
13,00	1072,15
14,00	1067,10
15,00	1083,95
16,00	1097,10
17,00	1121,63
18,00	1130,15
19,00	1153,46
20,00	1155,05
21,00	1169,33
22,00	1192,08
23,00	1207,72
24,00	1211,32
25,00	1235,15
26,00	1246,71
27,00	1266,74
28,00	1259,54
29,00	1274,75
30,00	1279,48
31,00	1283,32
32,00	1311,78
33,00	1301,20
34,00	1312,95
35,00	1318,14
36,00	1313,74
37,00	1312,71
38,00	1332,09
39,00	1341,74
40,00	1341,97
41,00	1371,23
42,00	1388,73
43,00	1416,02
44,00	1421,64
45,00	1439,99
46,00	1463,72
47,00	1486,01
48,00	1499,96
49,00	1540,59
50,00	1566,24
51,00	1500,75
52,00	1360,88
53,00	1334,57
54,00	1316,69
55,00	1315,71
56,00	1328,39
57,00	1310,37
58,00	1307,66
59,00	1317,16
60,00	1300,31
61,00	1298,11
62,00	1304,38
63,00	1305,69
64,00	1298,39
65,00	1305,46
66,00	1306,86
67,00	1310,09
68,00	1291,37
69,00	1286,26
70,00	1334,67
71,00	1280,74
72,00	1284,30
73,00	1285,38
74,00	1280,13
75,00	1281,44
76,00	1276,86
77,00	1274,05
78,00	1279,01
79,00	1280,27
80,00	1284,25
81,00	1285,28
82,00	1291,84
83,00	1281,49
84,00	1296,38
85,00	1291,04
86,00	1298,25
87,00	1298,86
88,00	1283,88
89,00	1284,35
90,00	1288,84
91,00	1301,34
92,00	1279,29
93,00	1284,67
94,00	1276,76
95,00	1290,20
96,00	1277,65
97,00	1332,94
98,00	1286,87
99,00	1285,98
100,00	1286,31
101,00	1303,26
102,00	1295,53
103,00	1282,15
104,00	1290,20
105,00	1304,24
106,00	1296,38
107,00	1293,99
108,00	1294,64
109,00	1293,71
110,00	1301,85
111,00	1294,69
112,00	1291,69
113,00	1295,07
114,00	1291,84
115,00	1287,06
116,00	1295,44
117,00	1294,64
118,00	1294,55
119,00	1310,19
120,00	1289,64
121,00	1288,65
122,00	1308,13
123,00	1287,11
124,00	1292,91
125,00	1289,68
126,00	1307,75
127,00	1305,04
128,00	1290,99
129,00	1289,45
130,00	1295,53
131,00	1296,24
132,00	1295,53
133,00	1301,20
134,00	1291,93
135,00	1298,67
136,00	1299,42
137,00	1303,21
138,00	1316,93
139,00	1296,38
140,00	1288,79
141,00	1308,64
142,00	1301,20
143,00	1287,86
144,00	1290,15
145,00	1300,54
146,00	1297,78
147,00	1310,19
148,00	1333,12
149,00	1303,63
150,00	1297,78
151,00	1302,79
152,00	1285,47
153,00	1296,61
154,00	1296,56
155,00	1300,87
156,00	1304,15
157,00	1306,77
158,00	1304,61
159,00	1309,06
160,00	1307,38
161,00	1310,04
162,00	1300,78
163,00	1306,53
164,00	1304,01
165,00	1305,74
166,00	1298,06
167,00	1313,18
168,00	1305,08
169,00	1306,39
170,00	1310,42
171,00	1303,96
172,00	1319,45
173,00	1295,49
174,00	1302,37
175,00	1304,29
176,00	1303,73
177,00	1305,27
178,00	1313,93
179,00	1301,90
180,00	1313,60
181,00	1303,07
182,00	1304,85
183,00	1324,42
184,00	1307,66
185,00	1309,81
186,00	1311,78
187,00	1319,69
188,00	1333,45
189,00	1323,29
190,00	1312,81
191,00	1317,72
192,00	1328,21
193,00	1319,73
194,00	1325,35
195,00	1333,73
196,00	1335,65
197,00	1325,54
198,00	1351,71
199,00	1332,70
200,00	1348,34
201,00	1364,02
202,00	1352,92
203,00	1374,22
204,00	1372,58
205,00	1394,54
206,00	1402,40
207,00	1434,47
208,00	1540,07
209,00	1723,01
210,00	1842,47
211,00	1897,00
212,00	1932,53
213,00	1995,26
214,00	2064,35
215,00	2145,19
216,00	2214,85
217,00	2331,31
218,00	1792,29
219,00	1491,06
220,00	1438,63
221,00	1394,40
222,00	1387,05
223,00	1362,29
224,00	1361,40
225,00	1344,83
226,00	1345,62
227,00	1338,41
228,00	1333,64
229,00	1327,51
230,00	1321,98
231,00	1324,65
232,00	1329,71
233,00	1318,85
234,00	1312,71
235,00	1320,76
236,00	1346,79
237,00	1325,91
238,00	1312,62
239,00	1317,25
240,00	1324,23
241,00	1322,73
242,00	1309,11
243,00	1327,18
244,00	1316,97
245,00	1312,53
246,00	1299,70
247,00	1318,05
248,00	1312,24
249,00	1324,93
250,00	1317,07
251,00	1321,00
252,00	1319,50
253,00	1305,74
254,00	1321,19
255,00	1312,06
256,00	1316,04
257,00	1322,31
258,00	1312,48
259,00	1309,20
260,00	1307,98
261,00	1321,33
262,00	1307,19
263,00	1310,51
264,00	1322,78
265,00	1311,36
266,00	1310,84
267,00	1308,69
268,00	1313,18
269,00	1321,19
270,00	1321,00
271,00	1322,82
272,00	1315,01
273,00	1314,40
274,00	1310,84
275,00	1317,02
276,00	1316,55
277,00	1325,30
278,00	1314,44
279,00	1323,10
280,00	1319,92
281,00	1322,59
282,00	1311,50
283,00	1317,58
284,00	1315,15
285,00	1319,03
286,00	1319,64
287,00	1316,64
288,00	1309,62
289,00	1316,79
290,00	1326,24
291,00	1314,91
292,00	1312,39
293,00	1313,88
294,00	1321,61
295,00	1325,73
296,00	1326,57
297,00	1315,38
298,00	1314,44
299,00	1320,11
300,00	1321,98
301,00	1320,20
302,00	1321,14
303,00	1325,59
304,00	1317,72
305,00	1320,34
306,00	1318,47
307,00	1313,70
308,00	1320,53
309,00	1299,04
310,00	1316,18
311,00	1318,52
312,00	1320,02
313,00	1326,38
314,00	1317,67
315,00	1317,07
316,00	1313,51
317,00	1316,97
318,00	1318,19
319,00	1314,16
320,00	1315,29
321,00	1313,51
322,00	1318,85
323,00	1330,45
324,00	1323,67
325,00	1329,99
326,00	1314,68
327,00	1316,69
328,00	1317,49
329,00	1325,87
330,00	1319,27
331,00	1322,08
332,00	1305,60
333,00	1316,32
334,00	1320,72
335,00	1324,46
336,00	1320,76
337,00	1319,13
338,00	1329,61
339,00	1317,58
340,00	1316,22
341,00	1320,58
342,00	1319,83
343,00	1333,92
344,00	1335,14
345,00	1314,02
346,00	1315,71
347,00	1324,09
348,00	1314,40
349,00	1328,30
350,00	1328,07
351,00	1318,66
352,00	1331,25
353,00	1331,48
354,00	1318,99
355,00	1325,12
356,00	1319,31
357,00	1330,59
358,00	1325,07
359,00	1311,96
360,00	1328,82
361,00	1322,87
362,00	1333,54
363,00	1320,58
364,00	1325,26
365,00	1321,89
366,00	1319,97
367,00	1322,64
368,00	1317,53
369,00	1327,04
370,00	1321,51
371,00	1316,83
372,00	1330,50
373,00	1327,18
374,00	1318,28
375,00	1326,80
376,00	1325,26
377,00	1370,66
378,00	1325,68
379,00	1315,85
380,00	1315,66
381,00	1337,90
382,00	1333,31
383,00	1325,40
384,00	1327,74
385,00	1320,11
386,00	1326,52
387,00	1319,08
388,00	1324,93
389,00	1333,54
390,00	1330,27
391,00	1327,41
392,00	1328,02
393,00	1332,84
394,00	1328,44
395,00	1326,66
396,00	1332,70
397,00	1332,42
398,00	1330,13
399,00	1333,36
400,00	1339,63
401,00	1327,97
402,00	1324,42
403,00	1326,90
404,00	1331,16
405,00	1335,28
406,00	1326,62
407,00	1334,95
408,00	1320,53
409,00	1336,63
410,00	1326,76
411,00	1320,39
412,00	1329,42
413,00	1320,67
414,00	1334,95
415,00	1327,65
416,00	1341,74
417,00	1330,22
418,00	1321,14
419,00	1326,62
420,00	1332,56
421,00	1317,67
422,00	1326,24
423,00	1322,50
424,00	1320,11
425,00	1321,47
426,00	1328,77
427,00	1328,72
428,00	1324,93
429,00	1328,21
430,00	1333,22
431,00	1321,70
432,00	1332,79
433,00	1331,58
434,00	1340,33
435,00	1333,03
436,00	1339,07
437,00	1336,77
438,00	1336,26
439,00	1330,55
440,00	1333,87
441,00	1327,04
442,00	1334,39
443,00	1338,93
444,00	1328,68
445,00	1331,95
446,00	1334,85
447,00	1329,94
448,00	1341,78
449,00	1338,74
450,00	1333,26
451,00	1347,03
452,00	1336,59
453,00	1332,14
454,00	1338,60
455,00	1330,97
456,00	1343,05
457,00	1355,17
458,00	1338,55
459,00	1331,48
460,00	1332,33
461,00	1329,80
462,00	1335,23
463,00	1338,65
464,00	1334,20
465,00	1332,70
466,00	1333,08
467,00	1338,55
468,00	1335,46
469,00	1339,54
470,00	1344,03
471,00	1344,97
472,00	1351,94
473,00	1340,71
474,00	1332,23
475,00	1348,10
476,00	1334,67
477,00	1336,87
478,00	1343,94
479,00	1340,42
480,00	1335,74
481,00	1325,49
482,00	1335,23
483,00	1347,73
484,00	1336,40
485,00	1354,47
486,00	1335,46
487,00	1341,22
488,00	1346,42
489,00	1334,71
490,00	1327,41
491,00	1343,37
492,00	1331,67
493,00	1338,27
494,00	1339,54
495,00	1351,24
496,00	1343,61
497,00	1337,38
498,00	1336,12
499,00	1330,50
500,00	1335,84
501,00	1335,23
502,00	1348,85
503,00	1346,04
504,00	1347,07
505,00	1349,27
506,00	1344,45
507,00	1343,98
508,00	1349,65
509,00	1336,45
510,00	1338,60
511,00	1349,83
512,00	1351,47
513,00	1357,04
514,00	1375,91
515,00	1347,87
516,00	1349,97
517,00	1345,11
518,00	1349,46
519,00	1367,53
520,00	1369,59
521,00	1353,06
522,00	1373,19
523,00	1397,63
524,00	1385,22
525,00	1376,80
526,00	1359,85
527,00	1351,43
528,00	1350,07
529,00	1349,65
530,00	1347,45
531,00	1351,00
532,00	1347,73
533,00	1353,63
534,00	1349,65
535,00	1349,32
536,00	1348,62
537,00	1347,73
538,00	1364,44
539,00	1349,37
540,00	1353,02
541,00	1360,13
542,00	1351,43
543,00	1356,62
544,00	1351,94
545,00	1351,94
546,00	1354,23
547,00	1367,34
548,00	1360,88
549,00	1360,93
550,00	1364,95
551,00	1363,22
552,00	1371,09
553,00	1360,13
554,00	1351,38
555,00	1359,15
556,00	1345,53
557,00	1356,20
558,00	1351,24
559,00	1350,82
560,00	1356,71
561,00	1355,26
562,00	1356,43
563,00	1348,52
564,00	1356,20
565,00	1355,40
566,00	1355,03
567,00	1351,71
568,00	1358,21
569,00	1356,20
570,00	1357,70
571,00	1351,14
572,00	1347,03
573,00	1353,30
574,00	1350,86
575,00	1353,53
576,00	1358,87
577,00	1354,66
578,00	1347,59
579,00	1352,60
580,00	1351,33
581,00	1356,57
582,00	1354,05
583,00	1357,46
584,00	1341,78
585,00	1361,40
586,00	1347,91
587,00	1363,64
588,00	1348,85
589,00	1351,80
590,00	1368,98
591,00	1352,78
592,00	1357,65
593,00	1360,27
594,00	1356,71
595,00	1362,71
596,00	1366,59
597,00	1358,82
598,00	1344,87
599,00	1356,62
600,00	1360,74
601,00	1649,56
602,00	1382,04
603,00	1360,65
604,00	1358,59
605,00	1366,87
606,00	1361,40
607,00	1356,81
608,00	1357,70
609,00	1366,78
610,00	1358,03
611,00	1357,32
612,00	1352,69
613,00	1354,61
614,00	1359,52
615,00	1365,14
616,00	1365,19
617,00	1367,29
618,00	1360,04
619,00	1356,43
620,00	1354,42
621,00	1357,79
622,00	1358,68
623,00	1364,49
624,00	1359,94
625,00	1389,53
626,00	1361,21
627,00	1375,06
628,00	1366,83
629,00	1365,37
630,00	1361,91
631,00	1362,52
632,00	1364,63
633,00	1361,54
634,00	1369,12
635,00	1379,79
636,00	1357,51
637,00	1361,54
638,00	1365,66
639,00	1361,02
640,00	1359,34
641,00	1360,93
642,00	1368,79
643,00	1357,28
644,00	1357,23
645,00	1363,83
646,00	1359,85
647,00	1370,48
648,00	1361,02
649,00	1358,96
650,00	1362,43
651,00	1360,83
652,00	1366,45
653,00	1362,19
654,00	1352,60
655,00	1363,08
656,00	1368,18
657,00	1368,84
658,00	1369,68
659,00	1374,46
660,00	1404,88
661,00	1377,36
662,00	1369,92
663,00	1362,75
664,00	1370,48
665,00	1362,33
666,00	1368,51
667,00	1358,07
668,00	1344,40
669,00	1362,14
670,00	1360,46
671,00	1361,54
672,00	1358,03
673,00	1367,20
674,00	1362,66
675,00	1365,09
676,00	1369,45
677,00	1361,54
678,00	1355,83
679,00	1367,53
680,00	1368,00
681,00	1354,28
682,00	1367,90
683,00	1359,20
684,00	1370,95
685,00	1368,46
686,00	1362,75
687,00	1373,33
688,00	1364,67
689,00	1381,43
690,00	1377,22
691,00	1369,63
692,00	1365,84
693,00	1374,32
694,00	1370,85
695,00	1371,23
696,00	1374,13
697,00	1366,64
698,00	1366,73
699,00	1400,81
700,00	1370,62
701,00	1372,63
702,00	1375,06
703,00	1363,13
704,00	1379,37
705,00	1375,44
706,00	1375,44
707,00	1375,39
708,00	1376,80
709,00	1375,16
710,00	1373,05
711,00	1378,53
712,00	1375,91
713,00	1378,34
714,00	1367,90
715,00	1372,40
716,00	1374,03
717,00	1375,25
718,00	1376,56
719,00	1360,97
720,00	1371,23
721,00	1384,89
722,00	1370,76
723,00	1387,56
724,00	1379,98
725,00	1374,41
726,00	1365,94
727,00	1366,69
728,00	1371,79
729,00	1388,27
730,00	1362,99
731,00	1366,55
732,00	1369,35
733,00	1369,96
734,00	1379,70
735,00	1377,45
736,00	1373,94
737,00	1376,38
738,00	1377,92
739,00	1376,66
740,00	1373,15
741,00	1370,10
742,00	1400,53
743,00	1372,86
744,00	1381,48
745,00	1364,63
746,00	1375,39
747,00	1375,95
748,00	1391,50
749,00	1390,37
750,00	1379,14
751,00	1371,55
752,00	1391,96
753,00	1378,11
754,00	1379,89
755,00	1374,74
756,00	1380,73
757,00	1373,10
758,00	1369,03
759,00	1373,85
760,00	1378,34
761,00	1371,23
762,00	1367,58
763,00	1377,12
764,00	1380,64
765,00	1381,71
766,00	1373,01
767,00	1374,64
768,00	1368,18
769,00	1376,09
770,00	1381,48
771,00	1377,87
772,00	1382,09
773,00	1379,04
774,00	1382,69
775,00	1400,44
776,00	1390,28
777,00	1391,64
778,00	1395,94
779,00	1390,09
780,00	1393,93
781,00	1391,82
782,00	1399,17
783,00	1408,30
784,00	1401,23
785,00	1405,49
786,00	1403,81
787,00	1392,81
788,00	1397,11
789,00	1399,27
790,00	1394,87
791,00	1399,73
792,00	1409,14
793,00	1399,13
794,00	1410,73
795,00	1407,69
796,00	1407,50
797,00	1410,69
798,00	1416,26
799,00	1410,27
800,00	1420,19
801,00	1430,63
802,00	1440,18
803,00	1432,13
804,00	1426,28
805,00	1418,27
806,00	1432,60
807,00	1422,02
808,00	1433,11
809,00	1426,14
810,00	1437,93
811,00	1445,84
812,00	1447,57
813,00	1457,83
814,00	1478,84
815,00	1477,11
816,00	1490,45
817,00	1488,49
818,00	1498,36
819,00	1509,55
820,00	1518,31
821,00	1531,55
822,00	1536,09
823,00	1544,80
824,00	1550,14
825,00	1565,26
826,00	1574,71
827,00	1591,80
828,00	1613,99
829,00	1644,93
830,00	1674,89
831,00	1731,62
832,00	1805,96
833,00	1918,12
834,00	2164,34
835,00	2557,97
836,00	3244,17
837,00	4129,22
838,00	7127,02
839,00	13354,11
840,00	13712,36
841,00	14594,69
842,00	9695,29
843,00	6244,83
844,00	4427,50
845,00	3291,17
846,00	2573,33
847,00	2147,07
848,00	1939,70
849,00	1815,79
850,00	1756,10
851,00	1692,49
852,00	1639,08
853,00	1612,68
854,00	1577,05
855,00	1553,55
856,00	1536,37
857,00	1526,08
858,00	1497,90
859,00	1495,65
860,00	1480,62
861,00	1468,97
862,00	1461,57
863,00	1467,05
864,00	1455,25
865,00	1436,76
866,00	1456,47
867,00	1440,93
868,00	1424,59
869,00	1424,22
870,00	1415,28
871,00	1415,79
872,00	1409,19
873,00	1407,08
874,00	1406,52
875,00	1408,30
876,00	1404,79
877,00	1396,04
878,00	1391,64
879,00	1401,28
880,00	1401,19
881,00	1387,38
882,00	1396,08
883,00	1389,20
884,00	1387,42
885,00	1387,94
886,00	1386,81
887,00	1389,25
888,00	1380,73
889,00	1385,88
890,00	1398,89
891,00	1401,51
892,00	1396,64
893,00	1383,58
894,00	1382,69
895,00	1378,86
896,00	1391,78
897,00	1390,28
898,00	1387,47
899,00	1384,19
900,00	1387,84
901,00	1391,31
902,00	1380,59
903,00	1386,16
904,00	1388,92
905,00	1386,21
906,00	1383,63
907,00	1381,38
908,00	1377,50
909,00	1377,41
910,00	1382,79
911,00	1384,66
912,00	1388,87
913,00	1382,98
914,00	1378,67
915,00	1376,94
916,00	1385,18
917,00	1375,21
918,00	1366,92
919,00	1378,15
920,00	1378,48
921,00	1378,90
922,00	1382,84
923,00	1382,74
924,00	1367,01
925,00	1385,55
926,00	1381,29
927,00	1372,21
928,00	1382,09
929,00	1377,45
930,00	1379,98
931,00	1383,26
932,00	1374,69
933,00	1392,99
934,00	1379,00
935,00	1393,32
936,00	1375,39
937,00	1377,55
938,00	1365,42
939,00	1391,96
940,00	1385,04
941,00	1374,32
942,00	1385,69
943,00	1372,49
944,00	1399,13
945,00	1376,47
946,00	1379,84
947,00	1377,17
948,00	1377,22
949,00	1378,15
950,00	1391,12
951,00	1376,47
952,00	1368,70
953,00	1377,17
954,00	1389,86
955,00	1398,80
956,00	1372,02
957,00	1378,67
958,00	1379,32
959,00	1380,82
960,00	1378,67
961,00	1381,10
962,00	1384,52
963,00	1390,56
964,00	1408,77
965,00	1388,41
966,00	1389,44
967,00	1387,24
968,00	1389,25
969,00	1399,36
970,00	1390,75
971,00	1401,84
972,00	1387,38
973,00	1399,41
974,00	1389,11
975,00	1387,89
976,00	1390,65
977,00	1392,71
978,00	1389,15
979,00	1389,34
980,00	1388,03
981,00	1394,58
982,00	1395,66
983,00	1390,23
984,00	1393,60
985,00	1390,51
986,00	1395,38
987,00	1390,37
988,00	1416,49
989,00	1398,33
990,00	1398,84
991,00	1396,36
992,00	1393,93
993,00	1399,08
994,00	1402,03
995,00	1413,31
996,00	1408,21
997,00	1416,68
998,00	1422,91
999,00	1431,57
1000,00	1421,83
1001,00	1420,19
1002,00	1431,71
1003,00	1432,83
1004,00	1446,17
1005,00	1443,31
1006,00	1434,51
1007,00	1452,26
1008,00	1449,21
1009,00	1450,76
1010,00	1467,94
1011,00	1469,15
1012,00	1476,69
1013,00	1481,79
1014,00	1493,07
1015,00	1503,98
1016,00	1515,40
1017,00	1529,49
1018,00	1560,90
1019,00	1583,42
1020,00	1636,13
1021,00	1710,42
1022,00	1871,96
1023,00	2084,90
1024,00	2383,13
1025,00	2824,18
1026,00	4379,89
1027,00	8156,39
1028,00	8280,53
1029,00	5902,74
1030,00	4067,29
1031,00	3085,48
1032,00	2523,75
1033,00	2179,13
1034,00	2025,97
1035,00	2053,07
1036,00	2171,92
1037,00	2432,38
1038,00	2858,45
1039,00	4304,57
1040,00	8014,23
1041,00	8264,99
1042,00	5844,50
1043,00	4041,31
1044,00	3085,62
1045,00	2473,48
1046,00	2057,19
1047,00	1819,44
1048,00	1722,12
1049,00	1657,47
1050,00	1612,25
1051,00	1564,27
1052,00	1539,70
1053,00	1510,21
1054,00	1489,38
1055,00	1480,20
1056,00	1466,06
1057,00	1446,12
1058,00	1448,84
1059,00	1439,15
1060,00	1423,75
1061,00	1423,75
1062,00	1409,85
1063,00	1407,46
1064,00	1423,00
1065,00	1409,28
1066,00	1389,76
1067,00	1413,78
1068,00	1396,93
1069,00	1401,33
1070,00	1398,05
1071,00	1395,94
1072,00	1388,64
1073,00	1395,80
1074,00	1384,94
1075,00	1403,81
1076,00	1387,98
1077,00	1379,23
1078,00	1380,78
1079,00	1377,87
1080,00	1393,70
1081,00	1388,97
1082,00	1370,29
1083,00	1389,76
1084,00	1384,75
1085,00	1384,61
1086,00	1380,78
1087,00	1392,10
1088,00	1386,95
1089,00	1377,50
1090,00	1378,39
1091,00	1386,07
1092,00	1381,52
1093,00	1391,78
1094,00	1380,87
1095,00	1376,14
1096,00	1373,10
1097,00	1365,70
1098,00	1370,38
1099,00	1372,40
1100,00	1371,23
1101,00	1363,83
1102,00	1383,02
1103,00	1371,93
1104,00	1379,93
1105,00	1387,38
1106,00	1367,29
1107,00	1374,41
1108,00	1371,51
1109,00	1364,25
1110,00	1364,53
1111,00	1379,61
1112,00	1378,53
1113,00	1368,32
1114,00	1369,45
1115,00	1371,37
1116,00	1374,41
1117,00	1367,34
1118,00	1363,08
1119,00	1370,24
1120,00	1374,50
1121,00	1387,10
1122,00	1371,93
1123,00	1370,80
1124,00	1378,15
1125,00	1368,70
1126,00	1365,42
1127,00	1382,09
1128,00	1387,24
1129,00	1364,58
1130,00	1371,46
1131,00	1373,85
1132,00	1366,55
1133,00	1370,99
1134,00	1377,08
1135,00	1365,94
1136,00	1385,97
1137,00	1372,86
1138,00	1369,07
1139,00	1365,52
1140,00	1361,07
1141,00	1361,82
1142,00	1360,13
1143,00	1368,04
1144,00	1372,49
1145,00	1387,33
1146,00	1376,05
1147,00	1384,05
1148,00	1366,03
1149,00	1365,42
1150,00	1375,81
1151,00	1362,75
1152,00	1368,18
1153,00	1369,73
1154,00	1366,17
1155,00	1363,74
1156,00	1375,16
1157,00	1365,19
1158,00	1364,81
1159,00	1365,89
1160,00	1361,63
1161,00	1366,83
1162,00	1363,41
1163,00	1365,84
1164,00	1359,34
1165,00	1371,83
1166,00	1376,98
1167,00	1365,61
1168,00	1376,38
1169,00	1366,59
1170,00	1371,55
1171,00	1380,35
1172,00	1366,73
1173,00	1365,42
1174,00	1367,11
1175,00	1363,27
1176,00	1363,22
1177,00	1372,30
1178,00	1390,70
1179,00	1372,72
1180,00	1370,48
1181,00	1369,21
1182,00	1365,00
1183,00	1378,34
1184,00	1369,45
1185,00	1368,56
1186,00	1372,02
1187,00	1370,01
1188,00	1373,94
1189,00	1362,33
1190,00	1365,47
1191,00	1363,08
1192,00	1379,89
1193,00	1361,07
1194,00	1376,42
1195,00	1372,16
1196,00	1374,88
1197,00	1360,93
1198,00	1375,63
1199,00	1373,94
1200,00	1369,35
1201,00	1354,80
1202,00	1367,06
1203,00	1364,20
1204,00	1368,23
1205,00	1375,53
1206,00	1362,89
1207,00	1366,31
1208,00	1366,12
1209,00	1360,46
1210,00	1357,09
1211,00	1366,40
1212,00	1359,10
1213,00	1357,70
1214,00	1374,03
1215,00	1367,72
1216,00	1365,52
1217,00	1376,05
1218,00	1375,11
1219,00	1365,28
1220,00	1366,03
1221,00	1375,06
1222,00	1377,08
1223,00	1369,17
1224,00	1370,24
1225,00	1374,50
1226,00	1358,63
1227,00	1367,95
1228,00	1356,01
1229,00	1357,37
1230,00	1351,52
1231,00	1366,78
1232,00	1366,36
1233,00	1363,41
1234,00	1367,01
1235,00	1359,01
1236,00	1371,23
1237,00	1366,78
1238,00	1361,07
1239,00	1364,63
1240,00	1353,91
1241,00	1368,23
1242,00	1364,58
1243,00	1360,23
1244,00	1357,37
1245,00	1362,05
1246,00	1362,19
1247,00	1366,59
1248,00	1361,07
1249,00	1363,13
1250,00	1369,45
1251,00	1374,13
1252,00	1366,17
1253,00	1368,04
1254,00	1362,24
1255,00	1364,86
1256,00	1357,70
1257,00	1362,80
1258,00	1351,52
1259,00	1352,78
1260,00	1361,35
1261,00	1359,38
1262,00	1358,68
1263,00	1360,88
1264,00	1363,22
1265,00	1360,46
1266,00	1378,81
1267,00	1363,97
1268,00	1362,94
1269,00	1363,83
1270,00	1374,92
1271,00	1363,92
1272,00	1368,00
1273,00	1368,56
1274,00	1361,54
1275,00	1356,57
1276,00	1368,84
1277,00	1417,94
1278,00	1367,20
1279,00	1358,54
1280,00	1356,43
1281,00	1363,03
1282,00	1359,01
1283,00	1352,78
1284,00	1353,39
1285,00	1378,62
1286,00	1357,70
1287,00	1364,63
1288,00	1358,31
1289,00	1369,96
1290,00	1353,53
1291,00	1351,43
1292,00	1361,96
1293,00	1346,51
1294,00	1349,97
1295,00	1348,52
1296,00	1364,53
1297,00	1359,01
1298,00	1361,07
1299,00	1343,98
1300,00	1355,36
1301,00	1357,84
1302,00	1359,24
1303,00	1353,95
1304,00	1363,88
1305,00	1362,38
1306,00	1360,32
1307,00	1365,42
1308,00	1358,63
1309,00	1346,32
1310,00	1358,92
1311,00	1355,54
1312,00	1352,13
1313,00	1351,33
1314,00	1357,18
1315,00	1380,96
1316,00	1355,92
1317,00	1355,17
1318,00	1368,93
1319,00	1366,92
1320,00	1358,12
1321,00	1370,48
1322,00	1419,58
1323,00	1371,27
1324,00	1365,61
1325,00	1368,00
1326,00	1356,06
1327,00	1357,28
1328,00	1362,05
1329,00	1354,56
1330,00	1361,30
1331,00	1357,28
1332,00	1347,54
1333,00	1358,12
1334,00	1350,11
1335,00	1362,94
1336,00	1351,75
1337,00	1356,15
1338,00	1351,52
1339,00	1347,45
1340,00	1356,20
1341,00	1353,02
1342,00	1354,89
1343,00	1360,97
1344,00	1352,78
1345,00	1348,05
1346,00	1345,81
1347,00	1351,52
1348,00	1357,00
1349,00	1346,37
1350,00	1364,35
1351,00	1369,63
1352,00	1357,14
1353,00	1351,99
1354,00	1380,96
1355,00	1348,57
1356,00	1350,07
1357,00	1355,12
1358,00	1353,91
1359,00	1359,71
1360,00	1353,39
1361,00	1356,95
1362,00	1359,85
1363,00	1355,83
1364,00	1357,42
1365,00	1364,16
1366,00	1360,04
1367,00	1345,90
1368,00	1352,88
1369,00	1356,48
1370,00	1357,32
1371,00	1344,08
1372,00	1337,48
1373,00	1361,68
1374,00	1348,15
1375,00	1343,37
1376,00	1349,13
1377,00	1352,08
1378,00	1353,81
1379,00	1346,74
1380,00	1366,31
1381,00	1352,88
1382,00	1344,40
1383,00	1366,45
1384,00	1353,77
1385,00	1354,75
1386,00	1349,23
1387,00	1359,66
1388,00	1349,88
1389,00	1358,31
1390,00	1353,44
1391,00	1347,82
1392,00	1354,09
1393,00	1354,42
1394,00	1348,52
1395,00	1344,97
1396,00	1353,86
1397,00	1343,70
1398,00	1372,72
1399,00	1454,27
1400,00	1366,64
1401,00	1352,69
1402,00	1390,70
1403,00	1355,78
1404,00	1347,73
1405,00	1345,67
1406,00	1356,01
1407,00	1348,94
1408,00	1349,93
1409,00	1348,57
1410,00	1342,77
1411,00	1409,19
1412,00	1360,37
1413,00	1342,16
1414,00	1355,64
1415,00	1339,30
1416,00	1345,43
1417,00	1348,76
1418,00	1353,11
1419,00	1356,90
1420,00	1337,57
1421,00	1354,23
1422,00	1338,22
1423,00	1340,80
1424,00	1349,46
1425,00	1354,23
1426,00	1355,64
1427,00	1348,71
1428,00	1342,95
1429,00	1351,89
1430,00	1348,90
1431,00	1348,05
1432,00	1348,05
1433,00	1342,91
1434,00	1348,94
1435,00	1347,45
1436,00	1343,09
1437,00	1359,06
1438,00	1348,94
1439,00	1354,33
1440,00	1351,43
1441,00	1345,62
1442,00	1345,11
1443,00	1334,67
1444,00	1344,50
1445,00	1350,58
1446,00	1347,35
1447,00	1347,77
1448,00	1358,45
1449,00	1355,22
1450,00	1339,39
1451,00	1359,20
1452,00	1350,11
1453,00	1349,88
1454,00	1352,97
1455,00	1353,16
1456,00	1342,67
1457,00	1357,60
1458,00	1344,26
1459,00	1340,71
1460,00	1336,68
1461,00	1344,45
1462,00	1355,17
1463,00	1348,66
1464,00	1344,54
1465,00	1346,93
1466,00	1345,15
1467,00	1353,77
1468,00	1348,20
1469,00	1338,69
1470,00	1343,00
1471,00	1348,38
1472,00	1351,94
1473,00	1340,85
1474,00	1343,47
1475,00	1350,11
1476,00	1358,45
1477,00	1352,88
1478,00	1385,74
1479,00	1360,93
1480,00	1349,83
1481,00	1331,11
1482,00	1345,57
1483,00	1351,05
1484,00	1346,00
1485,00	1350,68
1486,00	1342,39
1487,00	1338,83
1488,00	1351,99
1489,00	1342,39
1490,00	1349,69
1491,00	1354,56
1492,00	1339,63
1493,00	1342,30
1494,00	1338,60
1495,00	1354,42
1496,00	1339,25
1497,00	1351,99
1498,00	1352,22
1499,00	1349,51
1500,00	1353,86
1501,00	1346,51
1502,00	1342,20
1503,00	1352,22
1504,00	1341,78
1505,00	1344,59
1506,00	1341,78
1507,00	1341,69
1508,00	1352,83
1509,00	1341,74
1510,00	1333,26
1511,00	1349,51
1512,00	1333,26
1513,00	1330,13
1514,00	1331,30
1515,00	1341,92
1516,00	1396,88
1517,00	1353,34
1518,00	1343,61
1519,00	1344,73
1520,00	1352,17
1521,00	1344,31
1522,00	1348,05
1523,00	1336,91
1524,00	1344,45
1525,00	1348,94
1526,00	1335,79
1527,00	1347,40
1528,00	1344,17
1529,00	1340,42
1530,00	1335,79
1531,00	1337,24
1532,00	1344,12
1533,00	1334,76
1534,00	1337,52
1535,00	1334,06
1536,00	1340,85
1537,00	1347,03
1538,00	1341,55
1539,00	1337,57
1540,00	1335,37
1541,00	1336,35
1542,00	1336,91
1543,00	1345,76
1544,00	1341,41
1545,00	1339,82
1546,00	1339,02
1547,00	1337,90
1548,00	1331,95
1549,00	1335,88
1550,00	1344,45
1551,00	1338,41
1552,00	1338,18
1553,00	1335,28
1554,00	1341,69
1555,00	1338,32
1556,00	1333,59
1557,00	1350,30
1558,00	1340,47
1559,00	1336,40
1560,00	1342,02
1561,00	1337,85
1562,00	1349,88
1563,00	1337,29
1564,00	1329,00
1565,00	1340,94
1566,00	1350,40
1567,00	1349,32
1568,00	1344,92
1569,00	1337,80
1570,00	1343,09
1571,00	1341,64
1572,00	1347,49
1573,00	1351,71
1574,00	1344,87
1575,00	1339,07
1576,00	1332,51
1577,00	1342,58
1578,00	1342,20
1579,00	1345,62
1580,00	1340,38
1581,00	1350,58
1582,00	1339,82
1583,00	1348,71
1584,00	1341,83
1585,00	1336,68
1586,00	1344,45
1587,00	1346,00
1588,00	1349,51
1589,00	1345,53
1590,00	1341,36
1591,00	1339,54
1592,00	1356,01
1593,00	1338,88
1594,00	1334,15
1595,00	1337,34
1596,00	1332,47
1597,00	1339,58
1598,00	1337,66
1599,00	1338,41
1600,00	1342,02
1601,00	1341,27
1602,00	1347,96
1603,00	1344,50
1604,00	1333,87
1605,00	1348,90
1606,00	1349,60
1607,00	1346,70
1608,00	1336,82
1609,00	1330,55
1610,00	1342,39
1611,00	1350,86
1612,00	1340,99
1613,00	1344,59
1614,00	1332,00
1615,00	1333,36
1616,00	1344,31
1617,00	1336,59
1618,00	1344,36
1619,00	1344,50
1620,00	1347,17
1621,00	1347,82
1622,00	1338,93
1623,00	1344,36
1624,00	1345,01
1625,00	1338,04
1626,00	1350,02
1627,00	1342,62
1628,00	1335,93
1629,00	1384,57
1630,00	1340,52
1631,00	1347,40
1632,00	1349,60
1633,00	1338,41
1634,00	1342,44
1635,00	1333,17
1636,00	1335,18
1637,00	1330,83
1638,00	1334,71
1639,00	1331,48
1640,00	1337,62
1641,00	1347,87
1642,00	1347,26
1643,00	1339,39
1644,00	1350,11
1645,00	1348,15
1646,00	1339,07
1647,00	1345,29
1648,00	1352,60
1649,00	1346,32
1650,00	1357,46
1651,00	1345,71
1652,00	1342,67
1653,00	1329,38
1654,00	1337,90
1655,00	1331,34
1656,00	1333,45
1657,00	1343,09
1658,00	1338,65
1659,00	1339,21
1660,00	1350,02
1661,00	1348,43
1662,00	1333,03
1663,00	1341,36
1664,00	1334,43
1665,00	1339,49
1666,00	1338,04
1667,00	1343,61
1668,00	1327,51
1669,00	1325,68
1670,00	1345,20
1671,00	1334,99
1672,00	1338,74
1673,00	1339,77
1674,00	1336,02
1675,00	1339,49
1676,00	1340,33
1677,00	1335,74
1678,00	1337,57
1679,00	1335,79
1680,00	1334,99
1681,00	1334,20
1682,00	1356,81
1683,00	1340,47
1684,00	1344,22
1685,00	1339,63
1686,00	1335,18
1687,00	1327,83
1688,00	1335,23
1689,00	1342,39
1690,00	1337,94
1691,00	1321,00
1692,00	1330,59
1693,00	1338,60
1694,00	1330,41
1695,00	1337,01
1696,00	1337,01
1697,00	1334,11
1698,00	1330,41
1699,00	1324,56
1700,00	1335,84
1701,00	1336,63
1702,00	1331,44
1703,00	1335,98
1704,00	1334,06
1705,00	1335,93
1706,00	1335,18
1707,00	1328,96
1708,00	1331,39
1709,00	1333,45
1710,00	1332,98
1711,00	1330,13
1712,00	1333,22
1713,00	1346,42
1714,00	1332,98
1715,00	1337,24
1716,00	1346,00
1717,00	1335,93
1718,00	1347,45
1719,00	1342,20
1720,00	1326,57
1721,00	1327,32
1722,00	1334,43
1723,00	1329,05
1724,00	1340,99
1725,00	1333,54
1726,00	1330,88
1727,00	1328,72
1728,00	1343,75
1729,00	1332,70
1730,00	1345,15
1731,00	1335,32
1732,00	1353,06
1733,00	1331,58
1734,00	1326,38
1735,00	1333,78
1736,00	1336,31
1737,00	1331,95
1738,00	1328,11
1739,00	1341,41
1740,00	1335,79
1741,00	1347,91
1742,00	1338,08
1743,00	1331,34
1744,00	1329,28
1745,00	1333,12
1746,00	1338,93
1747,00	1333,82
1748,00	1333,22
1749,00	1340,71
1750,00	1337,57
1751,00	1347,03
1752,00	1317,82
1753,00	1315,43
1754,00	1326,10
1755,00	1321,61
1756,00	1322,31
1757,00	1331,06
1758,00	1321,47
1759,00	1335,32
1760,00	1322,68
1761,00	1338,46
1762,00	1337,15
1763,00	1324,84
1764,00	1335,74
1765,00	1332,84
1766,00	1322,08
1767,00	1325,21
1768,00	1324,93
1769,00	1325,63
1770,00	1323,53
1771,00	1338,51
1772,00	1350,54
1773,00	1326,66
1774,00	1323,15
1775,00	1327,27
1776,00	1326,29
1777,00	1334,06
1778,00	1343,42
1779,00	1337,62
1780,00	1335,88
1781,00	1349,13
1782,00	1357,65
1783,00	1383,35
1784,00	1417,71
1785,00	1385,41
1786,00	1364,77
1787,00	1351,89
1788,00	1345,29
1789,00	1344,64
1790,00	1340,80
1791,00	1328,44
1792,00	1331,25
1793,00	1329,66
1794,00	1329,14
1795,00	1328,53
1796,00	1326,85
1797,00	1328,07
1798,00	1325,40
1799,00	1330,83
1800,00	1330,41
1801,00	1325,82
1802,00	1339,30
1803,00	1322,22
1804,00	1331,95
1805,00	1323,71
1806,00	1321,14
1807,00	1316,50
1808,00	1324,09
1809,00	1333,64
1810,00	1326,90
1811,00	1331,67
1812,00	1320,11
1813,00	1324,46
1814,00	1329,85
1815,00	1329,38
1816,00	1345,29
1817,00	1324,09
1818,00	1354,14
1819,00	1328,30
1820,00	1340,19
1821,00	1328,39
1822,00	1326,99
1823,00	1326,24
1824,00	1336,07
1825,00	1338,51
1826,00	1327,60
1827,00	1337,99
1828,00	1329,71
1829,00	1325,21
1830,00	1330,22
1831,00	1324,74
1832,00	1325,21
1833,00	1317,02
1834,00	1327,41
1835,00	1319,87
1836,00	1328,25
1837,00	1328,21
1838,00	1327,69
1839,00	1325,07
1840,00	1331,81
1841,00	1333,08
1842,00	1328,58
1843,00	1320,72
1844,00	1338,97
1845,00	1320,11
1846,00	1318,94
1847,00	1324,79
1848,00	1333,31
1849,00	1324,04
1850,00	1331,86
1851,00	1326,94
1852,00	1317,39
1853,00	1316,69
1854,00	1321,84
1855,00	1320,44
1856,00	1323,43
1857,00	1325,96
1858,00	1339,25
1859,00	1324,37
1860,00	1335,56
1861,00	1351,85
1862,00	1318,80
1863,00	1328,35
1864,00	1322,54
1865,00	1326,57
1866,00	1326,80
1867,00	1319,97
1868,00	1324,23
1869,00	1313,70
1870,00	1322,26
1871,00	1317,21
1872,00	1330,31
1873,00	1323,25
1874,00	1334,06
1875,00	1325,77
1876,00	1314,68
1877,00	1322,31
1878,00	1329,33
1879,00	1335,74
1880,00	1317,25
1881,00	1331,67
1882,00	1331,62
1883,00	1323,29
1884,00	1313,60
1885,00	1327,83
1886,00	1322,96
1887,00	1309,76
1888,00	1327,97
1889,00	1323,57
1890,00	1321,61
1891,00	1326,80
1892,00	1332,65
1893,00	1318,38
1894,00	1332,84
1895,00	1334,34
1896,00	1338,37
1897,00	1342,39
1898,00	1323,90
1899,00	1324,60
1900,00	1316,64
1901,00	1320,39
1902,00	1326,19
1903,00	1338,55
1904,00	1330,41
1905,00	1362,99
1906,00	1330,08
1907,00	1324,88
1908,00	1355,97
1909,00	1328,16
1910,00	1329,75
1911,00	1320,16
1912,00	1340,00
1913,00	1332,65
1914,00	1321,70
1915,00	1324,65
1916,00	1332,65
1917,00	1323,99
1918,00	1324,74
1919,00	1328,53
1920,00	1325,49
1921,00	1327,13
1922,00	1320,53
1923,00	1315,57
1924,00	1319,17
1925,00	1315,85
1926,00	1323,85
1927,00	1332,94
1928,00	1326,19
1929,00	1321,05
1930,00	1319,64
1931,00	1324,28
1932,00	1347,35
1933,00	1326,80
1934,00	1320,39
1935,00	1314,77
1936,00	1330,22
1937,00	1315,57
1938,00	1326,90
1939,00	1324,84
1940,00	1331,86
1941,00	1316,50
1942,00	1317,25
1943,00	1318,75
1944,00	1324,37
1945,00	1318,33
1946,00	1316,50
1947,00	1317,44
1948,00	1329,28
1949,00	1317,02
1950,00	1319,97
1951,00	1322,82
1952,00	1314,73
1953,00	1313,09
1954,00	1320,67
1955,00	1316,27
1956,00	1315,76
1957,00	1322,54
1958,00	1322,26
1959,00	1322,68
1960,00	1308,64
1961,00	1330,50
1962,00	1311,59
1963,00	1324,28
1964,00	1312,95
1965,00	1322,87
1966,00	1314,26
1967,00	1325,26
1968,00	1311,92
1969,00	1309,39
1970,00	1317,49
1971,00	1321,51
1972,00	1314,12
1973,00	1316,93
1974,00	1309,25
1975,00	1315,76
1976,00	1317,53
1977,00	1321,89
1978,00	1314,40
1979,00	1311,68
1980,00	1353,44
1981,00	1317,72
1982,00	1312,76
1983,00	1317,21
1984,00	1313,37
1985,00	1322,78
1986,00	1308,50
1987,00	1314,30
1988,00	1313,46
1989,00	1314,16
1990,00	1329,85
1991,00	1312,67
1992,00	1314,96
1993,00	1330,17
1994,00	1310,98
1995,00	1305,55
1996,00	1314,49
1997,00	1315,15
1998,00	1311,50
1999,00	1312,24
2000,00	1302,13
2001,00	1310,84
2002,00	1323,15
2003,00	1310,75
2004,00	1320,20
2005,00	1318,70
2006,00	1332,00
2007,00	1317,02
2008,00	1316,27
2009,00	1317,91
2010,00	1316,88
2011,00	1310,93
2012,00	1312,85
2013,00	1310,00
2014,00	1310,33
2015,00	1304,38
2016,00	1314,91
2017,00	1310,56
2018,00	1312,20
2019,00	1310,09
2020,00	1312,20
2021,00	1305,60
2022,00	1320,90
2023,00	1322,26
2024,00	1317,67
2025,00	1322,54
2026,00	1314,59
2027,00	1316,04
2028,00	1312,81
2029,00	1311,87
2030,00	1308,64
2031,00	1320,58
2032,00	1300,31
2033,00	1324,32
2034,00	1324,18
2035,00	1315,99
2036,00	1311,07
2037,00	1310,79
2038,00	1308,50
2039,00	1311,03
2040,00	1315,19
2041,00	1315,29
2042,00	1318,14
2043,00	1314,91
2044,00	1316,41
2045,00	1306,91
2046,00	1306,91
2047,00	1306,91
>>>>>End Processed Spectral Data<<<<<
