SpectraSuite Datei
++++++++++++++++++++++++++++++++++++
Datum: Wed Sep 18 16:45:33 CEST 2024
Benutzer: Student
Dark-Spektrum vorhanden: Nein
Referenz-Spektrum vorhanden: Nein
Zahl der probierten Teilspektren: 1
Spektrometer: USB2+H15728
Integrationszeit (usec): 3000 (USB2+H15728)
Spektren Durchschnitt berechnet: 75 (USB2+H15728)
Boxcar Glättung: 0 (USB2+H15728)
Dunkelstromkorrektur: Nein (USB2+H15728)
Puls/Lampe aktiviert: Nein (USB2+H15728)
Correct for Detector Non-linearity: Nein (USB2+H15728)
Streulichtkorrektur: Nein (USB2+H15728)
Anzahl Pixel in verarbeitetem Spektrum: 2048
>>>>>Begin Processed Spectral Data<<<<<
0,00	1099,15
1,00	1099,15
2,00	1099,15
3,00	1066,16
4,00	1062,14
5,00	1067,38
6,00	1068,88
7,00	1079,86
8,00	1090,32
9,00	1093,12
10,00	1118,43
11,00	1122,05
12,00	1140,65
13,00	1160,53
14,00	1177,60
15,00	1190,83
16,00	1204,60
17,00	1223,69
18,00	1233,81
19,00	1269,16
20,00	1269,44
21,00	1285,45
22,00	1306,11
23,00	1329,92
24,00	1393,68
25,00	1399,45
26,00	1408,07
27,00	1433,41
28,00	1434,97
29,00	1445,23
30,00	1457,50
31,00	1462,93
32,00	1467,98
33,00	1476,57
34,00	1471,39
35,00	1480,90
36,00	1481,28
37,00	1490,36
38,00	1490,48
39,00	1496,54
40,00	1502,31
41,00	1499,38
42,00	1503,15
43,00	1501,25
44,00	1505,93
45,00	1508,90
46,00	1509,30
47,00	1512,39
48,00	1508,62
49,00	1509,65
50,00	1510,11
51,00	1506,09
52,00	1505,15
53,00	1515,57
54,00	1513,39
55,00	1509,33
56,00	1514,64
57,00	1524,31
58,00	1524,66
59,00	1520,88
60,00	1524,97
61,00	1522,81
62,00	1533,83
63,00	1540,26
64,00	1533,68
65,00	1543,13
66,00	1539,17
67,00	1542,91
68,00	1554,30
69,00	1559,73
70,00	1561,07
71,00	1574,31
72,00	1570,84
73,00	1581,80
74,00	1591,78
75,00	1589,97
76,00	1602,11
77,00	1611,04
78,00	1623,86
79,00	1621,90
80,00	1633,51
81,00	1642,93
82,00	1651,83
83,00	1648,92
84,00	1668,08
85,00	1679,44
86,00	1693,92
87,00	1703,04
88,00	1715,46
89,00	1726,19
90,00	1743,23
91,00	1758,80
92,00	1773,47
93,00	1788,67
94,00	1795,00
95,00	1817,63
96,00	1825,87
97,00	1838,04
98,00	1855,89
99,00	1879,76
100,00	1891,68
101,00	1914,56
102,00	1929,57
103,00	1953,19
104,00	1980,09
105,00	1980,19
106,00	2020,60
107,00	2034,21
108,00	2056,68
109,00	2075,03
110,00	2105,45
111,00	2141,09
112,00	2153,51
113,00	2191,52
114,00	2206,84
115,00	2246,70
116,00	2269,54
117,00	2312,82
118,00	2347,49
119,00	2364,57
120,00	2407,26
121,00	2450,17
122,00	2458,16
123,00	2508,43
124,00	2563,89
125,00	2588,07
126,00	2636,13
127,00	2688,03
128,00	2702,88
129,00	2780,34
130,00	2798,81
131,00	2849,59
132,00	2901,11
133,00	2961,59
134,00	2986,87
135,00	3042,26
136,00	3116,63
137,00	3171,49
138,00	3226,60
139,00	3283,87
140,00	3344,06
141,00	3423,02
142,00	3434,31
143,00	3505,31
144,00	3559,42
145,00	3611,73
146,00	3749,41
147,00	3802,43
148,00	3814,26
149,00	3986,77
150,00	4023,16
151,00	4128,02
152,00	4134,76
153,00	4171,27
154,00	4329,71
155,00	4407,17
156,00	4412,91
157,00	4569,60
158,00	4611,70
159,00	4747,89
160,00	4815,14
161,00	4913,81
162,00	4959,00
163,00	5068,16
164,00	5240,05
165,00	5259,90
166,00	5388,10
167,00	5502,63
168,00	5586,86
169,00	5713,87
170,00	5802,81
171,00	5893,78
172,00	5989,31
173,00	6144,59
174,00	6275,01
175,00	6395,06
176,00	6537,87
177,00	6631,08
178,00	6750,92
179,00	6863,17
180,00	6953,14
181,00	7153,02
182,00	7308,03
183,00	7394,69
184,00	7503,63
185,00	7643,32
186,00	7864,04
187,00	7992,18
188,00	8126,96
189,00	8263,81
190,00	8477,89
191,00	8535,22
192,00	8786,06
193,00	8973,89
194,00	9101,03
195,00	9252,73
196,00	9467,09
197,00	9674,50
198,00	9833,25
199,00	9932,30
200,00	10168,63
201,00	10524,80
202,00	10563,40
203,00	10611,15
204,00	10989,81
205,00	11205,86
206,00	11333,75
207,00	11642,14
208,00	11797,64
209,00	12060,31
210,00	12364,52
211,00	12453,68
212,00	12743,37
213,00	12859,87
214,00	13161,71
215,00	13396,57
216,00	13634,99
217,00	13985,95
218,00	14124,98
219,00	14426,13
220,00	14707,93
221,00	14947,88
222,00	15187,46
223,00	15503,58
224,00	15867,21
225,00	16173,79
226,00	16461,14
227,00	16534,48
228,00	17078,48
229,00	17156,16
230,00	17473,07
231,00	17712,83
232,00	18239,48
233,00	18606,98
234,00	18775,47
235,00	19276,68
236,00	19546,75
237,00	19901,67
238,00	20286,33
239,00	20530,52
240,00	21172,80
241,00	21163,78
242,00	21903,70
243,00	22002,47
244,00	22613,73
245,00	22783,80
246,00	23297,69
247,00	23882,45
248,00	23898,99
249,00	24828,47
250,00	24740,77
251,00	25373,93
252,00	25516,18
253,00	26009,16
254,00	27105,68
255,00	26902,34
256,00	28001,51
257,00	28122,69
258,00	28706,36
259,00	28880,84
260,00	29674,68
261,00	29619,92
262,00	30166,20
263,00	31215,19
264,00	31351,73
265,00	31582,88
266,00	32329,01
267,00	32459,27
268,00	33416,76
269,00	33729,71
270,00	33699,50
271,00	34541,10
272,00	35014,66
273,00	35593,49
274,00	36150,51
275,00	36043,06
276,00	36626,73
277,00	37007,33
278,00	36815,25
279,00	37994,60
280,00	38736,96
281,00	38465,39
282,00	39051,87
283,00	39387,38
284,00	39699,29
285,00	40687,81
286,00	40211,68
287,00	40730,69
288,00	41142,40
289,00	40704,04
290,00	41005,09
291,00	41334,36
292,00	42013,30
293,00	40989,74
294,00	41217,40
295,00	41231,81
296,00	41670,46
297,00	40808,46
298,00	42058,21
299,00	41354,71
300,00	41963,96
301,00	41633,04
302,00	41589,98
303,00	42093,75
304,00	40894,75
305,00	41189,28
306,00	41153,26
307,00	41015,42
308,00	40933,79
309,00	40252,97
310,00	39600,30
311,00	39342,88
312,00	39626,11
313,00	38829,99
314,00	38589,25
315,00	38685,44
316,00	38004,56
317,00	37359,66
318,00	37304,89
319,00	36400,70
320,00	36244,10
321,00	35980,68
322,00	35002,46
323,00	34897,36
324,00	33972,00
325,00	33334,60
326,00	33070,86
327,00	32600,23
328,00	32294,84
329,00	31983,58
330,00	31169,60
331,00	30494,93
332,00	29867,86
333,00	29480,20
334,00	29027,32
335,00	28718,56
336,00	28069,36
337,00	27741,12
338,00	27507,63
339,00	26802,88
340,00	26298,48
341,00	26073,47
342,00	25396,34
343,00	25029,94
344,00	24514,71
345,00	24378,68
346,00	23637,23
347,00	23568,88
348,00	22981,56
349,00	22831,71
350,00	22334,86
351,00	22322,72
352,00	21864,72
353,00	21420,86
354,00	21276,56
355,00	20994,14
356,00	20827,02
357,00	20464,36
358,00	20301,00
359,00	19891,71
360,00	19796,72
361,00	19648,36
362,00	19474,38
363,00	18989,02
364,00	19143,43
365,00	18988,08
366,00	18671,67
367,00	18483,24
368,00	18586,19
369,00	18363,03
370,00	18116,18
371,00	18126,73
372,00	17822,49
373,00	17932,97
374,00	17687,96
375,00	17526,46
376,00	17468,42
377,00	17259,27
378,00	17197,41
379,00	16963,24
380,00	16867,15
381,00	16854,42
382,00	16632,19
383,00	16538,29
384,00	16185,96
385,00	16218,54
386,00	16091,81
387,00	15901,44
388,00	15775,80
389,00	15685,68
390,00	15440,86
391,00	15392,86
392,00	15294,34
393,00	15141,33
394,00	14853,66
395,00	14910,77
396,00	14771,21
397,00	14593,33
398,00	14345,95
399,00	14340,37
400,00	14195,63
401,00	14043,84
402,00	13964,26
403,00	13897,60
404,00	13724,46
405,00	13629,66
406,00	13501,90
407,00	13304,26
408,00	13208,05
409,00	13059,16
410,00	13005,48
411,00	12830,26
412,00	12746,50
413,00	12557,38
414,00	12457,86
415,00	12343,39
416,00	12321,52
417,00	12178,34
418,00	12051,42
419,00	11913,83
420,00	11761,69
421,00	11637,42
422,00	11677,28
423,00	11488,63
424,00	11351,69
425,00	11257,66
426,00	11186,95
427,00	11043,40
428,00	10999,64
429,00	10889,20
430,00	10817,58
431,00	10722,15
432,00	10507,13
433,00	10524,30
434,00	10420,85
435,00	10300,67
436,00	10219,84
437,00	10184,83
438,00	10060,34
439,00	10025,58
440,00	9948,03
441,00	9923,75
442,00	9805,81
443,00	9776,48
444,00	9666,69
445,00	9619,91
446,00	9562,15
447,00	9471,56
448,00	9489,84
449,00	9433,73
450,00	9375,03
451,00	9313,37
452,00	9281,41
453,00	9244,99
454,00	9191,53
455,00	9131,62
456,00	9087,83
457,00	9069,08
458,00	9029,19
459,00	8996,61
460,00	9018,36
461,00	8945,68
462,00	9013,09
463,00	8958,20
464,00	8925,87
465,00	8967,53
466,00	8915,38
467,00	8901,93
468,00	8887,23
469,00	8878,78
470,00	8858,87
471,00	8847,01
472,00	8807,03
473,00	8826,22
474,00	8833,28
475,00	8844,76
476,00	8834,90
477,00	8835,55
478,00	8766,46
479,00	8808,72
480,00	8841,23
481,00	8865,29
482,00	8786,96
483,00	8837,71
484,00	8801,82
485,00	8819,42
486,00	8832,21
487,00	8832,71
488,00	8821,42
489,00	8837,27
490,00	8835,43
491,00	8836,90
492,00	8826,19
493,00	8851,94
494,00	8873,50
495,00	8878,90
496,00	8856,09
497,00	8899,12
498,00	8928,89
499,00	8942,50
500,00	8916,16
501,00	8921,12
502,00	8996,89
503,00	9011,91
504,00	9005,57
505,00	9019,18
506,00	9025,79
507,00	9092,26
508,00	9076,91
509,00	9111,52
510,00	9074,91
511,00	9141,10
512,00	9214,13
513,00	9174,68
514,00	9238,78
515,00	9271,27
516,00	9343,79
517,00	9298,98
518,00	9410,30
519,00	9432,17
520,00	9443,91
521,00	9446,87
522,00	9589,64
523,00	9585,31
524,00	9611,99
525,00	9699,99
526,00	9818,20
527,00	9789,68
528,00	9806,03
529,00	9920,97
530,00	9981,92
531,00	10093,98
532,00	10176,52
533,00	10235,16
534,00	10241,47
535,00	10266,12
536,00	10402,00
537,00	10457,58
538,00	10537,78
539,00	10632,77
540,00	10714,72
541,00	10836,71
542,00	10924,06
543,00	11032,44
544,00	11108,15
545,00	11171,88
546,00	11270,77
547,00	11411,42
548,00	11522,71
549,00	11656,40
550,00	11728,83
551,00	11812,22
552,00	11923,28
553,00	11974,12
554,00	12148,97
555,00	12395,07
556,00	12447,78
557,00	12572,05
558,00	12648,66
559,00	12842,61
560,00	13069,46
561,00	13161,61
562,00	13301,58
563,00	13429,31
564,00	13492,00
565,00	13684,89
566,00	13820,96
567,00	13955,33
568,00	14150,29
569,00	14333,88
570,00	14388,33
571,00	14533,88
572,00	14736,82
573,00	14941,82
574,00	15179,90
575,00	15212,61
576,00	15464,11
577,00	15488,64
578,00	15800,93
579,00	15931,65
580,00	16106,22
581,00	16312,75
582,00	16400,07
583,00	16686,02
584,00	16866,87
585,00	17033,76
586,00	17282,73
587,00	17326,21
588,00	17593,96
589,00	17772,34
590,00	18097,33
591,00	18096,27
592,00	18364,50
593,00	18503,62
594,00	18686,87
595,00	19003,62
596,00	19102,39
597,00	19455,69
598,00	19647,55
599,00	19804,90
600,00	19954,88
601,00	20114,22
602,00	20368,84
603,00	20632,01
604,00	20783,83
605,00	21081,92
606,00	21284,74
607,00	21423,30
608,00	21801,37
609,00	21942,09
610,00	22101,65
611,00	22418,06
612,00	22621,15
613,00	22743,33
614,00	23002,63
615,00	23388,13
616,00	23504,16
617,00	23749,23
618,00	23893,03
619,00	24241,33
620,00	24312,36
621,00	24473,76
622,00	25018,52
623,00	25002,35
624,00	25351,47
625,00	25529,66
626,00	25715,31
627,00	26056,15
628,00	26181,14
629,00	26563,11
630,00	26512,75
631,00	27020,55
632,00	27131,46
633,00	27373,22
634,00	27657,99
635,00	27736,38
636,00	28030,57
637,00	28256,45
638,00	28528,60
639,00	28777,23
640,00	29074,88
641,00	29252,02
642,00	29372,76
643,00	29660,58
644,00	29907,08
645,00	30084,97
646,00	30334,90
647,00	30570,83
648,00	30831,78
649,00	31055,66
650,00	31198,84
651,00	31533,29
652,00	31729,58
653,00	32010,82
654,00	32000,49
655,00	32350,54
656,00	32654,90
657,00	32757,70
658,00	33006,30
659,00	33168,42
660,00	33414,05
661,00	33435,61
662,00	33859,56
663,00	33917,14
664,00	34306,26
665,00	34384,87
666,00	34606,04
667,00	34788,76
668,00	35059,45
669,00	35151,94
670,00	35220,82
671,00	35529,74
672,00	35598,77
673,00	35690,08
674,00	36025,21
675,00	36153,79
676,00	36384,75
677,00	36690,89
678,00	36706,12
679,00	37057,80
680,00	37340,10
681,00	37443,70
682,00	37478,03
683,00	37775,93
684,00	37997,54
685,00	38115,31
686,00	38232,87
687,00	38336,76
688,00	38381,88
689,00	38582,76
690,00	38958,56
691,00	38773,75
692,00	39041,51
693,00	39071,44
694,00	39255,50
695,00	39531,71
696,00	39598,18
697,00	39842,91
698,00	40002,88
699,00	39949,36
700,00	40124,37
701,00	40293,04
702,00	40427,51
703,00	40671,68
704,00	40685,31
705,00	40736,93
706,00	40960,53
707,00	41020,26
708,00	41155,57
709,00	41356,83
710,00	41338,17
711,00	41516,36
712,00	41571,22
713,00	41597,44
714,00	41886,73
715,00	41938,66
716,00	41886,51
717,00	42118,35
718,00	42172,74
719,00	42358,55
720,00	42336,80
721,00	42531,00
722,00	42689,50
723,00	42543,45
724,00	42847,06
725,00	42821,19
726,00	43032,09
727,00	43150,55
728,00	42945,24
729,00	43531,06
730,00	42982,78
731,00	43250,95
732,00	43482,13
733,00	43530,94
734,00	43257,19
735,00	43836,92
736,00	43797,20
737,00	43699,64
738,00	43835,39
739,00	43604,59
740,00	43986,81
741,00	44026,85
742,00	44067,20
743,00	43983,41
744,00	44240,90
745,00	44213,37
746,00	44285,03
747,00	44422,99
748,00	44414,19
749,00	44494,74
750,00	44524,70
751,00	44404,58
752,00	44470,77
753,00	44557,71
754,00	44954,64
755,00	44924,52
756,00	44496,70
757,00	44951,52
758,00	45042,46
759,00	45391,07
760,00	44959,04
761,00	45091,73
762,00	45205,95
763,00	45083,65
764,00	45253,42
765,00	45356,68
766,00	45239,97
767,00	45265,71
768,00	45277,51
769,00	45350,00
770,00	45516,30
771,00	45301,38
772,00	45539,05
773,00	46091,45
774,00	45694,06
775,00	45454,98
776,00	45560,12
777,00	45941,88
778,00	45758,19
779,00	45789,87
780,00	45631,86
781,00	46017,02
782,00	45911,51
783,00	45783,53
784,00	46093,76
785,00	45805,28
786,00	46021,14
787,00	46126,81
788,00	46244,49
789,00	46594,45
790,00	46123,72
791,00	46306,97
792,00	46332,15
793,00	46405,33
794,00	46388,01
795,00	46688,94
796,00	46516,90
797,00	46791,71
798,00	46488,38
799,00	46686,95
800,00	46305,75
801,00	46790,62
802,00	46712,04
803,00	46933,05
804,00	46820,17
805,00	46808,28
806,00	46757,47
807,00	47014,03
808,00	46977,27
809,00	46935,17
810,00	47131,09
811,00	46857,43
812,00	47055,69
813,00	46972,74
814,00	46917,07
815,00	46981,04
816,00	46915,85
817,00	46941,22
818,00	47041,27
819,00	46868,01
820,00	46833,34
821,00	47038,62
822,00	46625,59
823,00	47203,67
824,00	47271,74
825,00	47191,88
826,00	47299,89
827,00	47204,33
828,00	47154,84
829,00	47218,37
830,00	47397,85
831,00	47144,94
832,00	47297,64
833,00	47280,97
834,00	47307,56
835,00	47202,96
836,00	47482,95
837,00	47317,80
838,00	47502,20
839,00	47430,08
840,00	47530,76
841,00	47357,00
842,00	47447,37
843,00	47584,90
844,00	47389,23
845,00	47671,69
846,00	47520,83
847,00	47828,75
848,00	47538,09
849,00	47764,56
850,00	47550,11
851,00	47686,11
852,00	47618,42
853,00	47682,55
854,00	47755,95
855,00	47643,91
856,00	47789,65
857,00	47735,01
858,00	47702,99
859,00	47879,68
860,00	47889,30
861,00	47701,21
862,00	47686,61
863,00	47747,93
864,00	47681,49
865,00	47732,39
866,00	47939,04
867,00	47930,43
868,00	47701,09
869,00	47833,65
870,00	47739,13
871,00	47850,04
872,00	47587,49
873,00	47815,27
874,00	47605,47
875,00	47839,74
876,00	47803,13
877,00	47733,01
878,00	47686,04
879,00	47577,54
880,00	47764,44
881,00	47579,94
882,00	47695,00
883,00	47727,70
884,00	47604,06
885,00	47594,70
886,00	47638,64
887,00	47959,39
888,00	47589,46
889,00	47604,50
890,00	47604,22
891,00	47746,52
892,00	47608,12
893,00	47392,67
894,00	47609,18
895,00	47464,78
896,00	47343,98
897,00	47503,67
898,00	47526,39
899,00	47553,85
900,00	47373,97
901,00	47500,55
902,00	47353,81
903,00	47222,80
904,00	47478,98
905,00	47409,30
906,00	47285,00
907,00	47344,01
908,00	47118,14
909,00	47349,79
910,00	47260,60
911,00	47237,04
912,00	47170,94
913,00	47206,61
914,00	46907,39
915,00	47117,14
916,00	46964,25
917,00	47086,80
918,00	46934,67
919,00	46833,62
920,00	46863,27
921,00	46874,50
922,00	46834,93
923,00	46759,53
924,00	46736,60
925,00	46584,56
926,00	46810,96
927,00	46504,88
928,00	46556,66
929,00	46448,21
930,00	46555,44
931,00	46234,94
932,00	46372,44
933,00	46348,29
934,00	46262,22
935,00	46152,52
936,00	46216,72
937,00	46168,35
938,00	45950,58
939,00	46023,11
940,00	45993,12
941,00	46014,68
942,00	45829,78
943,00	45694,90
944,00	45847,47
945,00	45456,07
946,00	45790,40
947,00	45472,46
948,00	45502,26
949,00	45401,06
950,00	45401,24
951,00	45273,33
952,00	45227,23
953,00	45128,34
954,00	45237,72
955,00	44971,74
956,00	45019,49
957,00	44763,62
958,00	44846,04
959,00	44883,67
960,00	44642,88
961,00	44581,46
962,00	44553,56
963,00	44455,51
964,00	44514,34
965,00	44405,08
966,00	44149,28
967,00	44214,84
968,00	44198,99
969,00	44127,65
970,00	44122,31
971,00	43890,10
972,00	43873,53
973,00	43918,72
974,00	43685,94
975,00	43783,50
976,00	43597,38
977,00	43552,10
978,00	43529,41
979,00	43333,58
980,00	43230,63
981,00	43263,49
982,00	43248,86
983,00	43078,56
984,00	43187,69
985,00	42963,62
986,00	42952,95
987,00	42774,82
988,00	42937,28
989,00	42838,20
990,00	42485,93
991,00	42646,00
992,00	42550,69
993,00	42519,11
994,00	42038,49
995,00	42246,48
996,00	42032,90
997,00	41794,82
998,00	42027,13
999,00	41810,27
1000,00	41468,68
1001,00	41765,39
1002,00	41614,44
1003,00	41641,94
1004,00	41575,72
1005,00	41626,74
1006,00	41408,48
1007,00	41483,72
1008,00	41108,30
1009,00	41274,66
1010,00	41190,37
1011,00	41075,22
1012,00	40991,83
1013,00	41046,79
1014,00	40862,98
1015,00	40921,43
1016,00	40500,29
1017,00	40554,28
1018,00	40675,73
1019,00	40442,65
1020,00	40378,67
1021,00	40329,08
1022,00	40410,13
1023,00	40102,99
1024,00	40168,96
1025,00	40008,71
1026,00	40010,02
1027,00	39870,75
1028,00	39687,18
1029,00	39781,34
1030,00	39520,04
1031,00	39575,78
1032,00	39588,04
1033,00	39425,98
1034,00	39284,80
1035,00	39019,60
1036,00	38821,53
1037,00	38995,92
1038,00	38965,52
1039,00	38839,41
1040,00	38856,26
1041,00	38938,59
1042,00	38820,72
1043,00	38754,93
1044,00	38603,45
1045,00	38645,24
1046,00	38665,46
1047,00	38150,20
1048,00	38401,45
1049,00	38477,78
1050,00	38269,69
1051,00	38001,81
1052,00	38023,81
1053,00	38168,24
1054,00	38005,21
1055,00	37914,46
1056,00	37731,50
1057,00	37543,29
1058,00	37519,63
1059,00	37616,28
1060,00	37523,37
1061,00	37118,40
1062,00	37258,11
1063,00	37477,91
1064,00	37400,57
1065,00	37246,13
1066,00	37005,80
1067,00	37110,10
1068,00	36884,13
1069,00	36922,79
1070,00	36504,37
1071,00	36455,28
1072,00	36644,96
1073,00	36173,76
1074,00	36420,76
1075,00	36266,85
1076,00	36250,72
1077,00	36284,58
1078,00	36222,51
1079,00	35982,99
1080,00	36172,57
1081,00	36118,02
1082,00	35920,98
1083,00	35816,72
1084,00	35841,06
1085,00	35635,44
1086,00	35764,07
1087,00	35549,06
1088,00	35392,74
1089,00	35607,35
1090,00	35329,76
1091,00	35373,20
1092,00	35464,05
1093,00	35154,19
1094,00	35144,83
1095,00	35100,61
1096,00	35103,20
1097,00	34984,95
1098,00	34879,76
1099,00	34890,87
1100,00	34665,58
1101,00	34518,44
1102,00	34572,55
1103,00	34607,88
1104,00	34413,18
1105,00	34207,96
1106,00	34246,34
1107,00	34186,68
1108,00	34188,80
1109,00	34021,75
1110,00	34030,61
1111,00	33968,60
1112,00	33777,64
1113,00	33797,96
1114,00	33639,05
1115,00	33517,72
1116,00	33532,08
1117,00	33401,54
1118,00	33386,15
1119,00	33218,94
1120,00	33371,61
1121,00	33155,97
1122,00	33186,02
1123,00	32953,31
1124,00	33174,16
1125,00	32952,71
1126,00	32932,84
1127,00	32758,23
1128,00	32675,66
1129,00	32522,43
1130,00	32518,28
1131,00	32521,84
1132,00	32448,25
1133,00	32303,61
1134,00	32131,59
1135,00	32214,35
1136,00	31981,83
1137,00	32123,73
1138,00	31815,12
1139,00	31901,56
1140,00	31827,45
1141,00	31874,01
1142,00	31604,47
1143,00	31581,10
1144,00	31452,06
1145,00	31461,95
1146,00	31358,93
1147,00	31192,51
1148,00	31200,84
1149,00	31177,03
1150,00	31067,77
1151,00	31053,73
1152,00	30878,66
1153,00	30852,60
1154,00	30741,35
1155,00	30726,43
1156,00	30630,53
1157,00	30476,15
1158,00	30334,62
1159,00	30352,07
1160,00	30396,97
1161,00	30163,67
1162,00	30137,58
1163,00	30105,84
1164,00	29918,35
1165,00	29879,78
1166,00	29877,25
1167,00	29726,08
1168,00	29683,05
1169,00	29742,12
1170,00	29506,92
1171,00	29513,75
1172,00	29350,16
1173,00	29324,76
1174,00	29262,31
1175,00	29152,34
1176,00	29047,70
1177,00	28918,13
1178,00	28898,25
1179,00	28892,70
1180,00	28827,41
1181,00	28645,47
1182,00	28586,34
1183,00	28448,06
1184,00	28422,06
1185,00	28392,45
1186,00	28221,84
1187,00	28178,71
1188,00	28133,43
1189,00	27934,29
1190,00	28101,88
1191,00	27848,57
1192,00	27817,39
1193,00	27609,90
1194,00	27741,96
1195,00	27402,31
1196,00	27521,30
1197,00	27390,38
1198,00	27374,81
1199,00	27248,89
1200,00	27134,83
1201,00	27019,86
1202,00	26978,17
1203,00	26809,28
1204,00	26931,58
1205,00	26773,89
1206,00	26614,01
1207,00	26637,61
1208,00	26472,27
1209,00	26358,93
1210,00	26408,08
1211,00	26187,88
1212,00	26138,79
1213,00	26122,59
1214,00	26075,35
1215,00	25989,53
1216,00	25777,01
1217,00	25793,73
1218,00	25747,14
1219,00	25598,60
1220,00	25524,92
1221,00	25365,85
1222,00	25387,35
1223,00	25294,26
1224,00	25206,88
1225,00	25139,01
1226,00	24988,65
1227,00	24962,94
1228,00	24788,99
1229,00	24763,21
1230,00	24677,86
1231,00	24603,84
1232,00	24491,52
1233,00	24459,94
1234,00	24327,56
1235,00	24329,18
1236,00	24209,38
1237,00	24059,12
1238,00	24045,85
1239,00	23905,20
1240,00	23788,55
1241,00	23768,70
1242,00	23662,25
1243,00	23604,55
1244,00	23501,19
1245,00	23402,67
1246,00	23285,40
1247,00	23302,59
1248,00	23156,57
1249,00	23031,46
1250,00	22986,74
1251,00	22932,16
1252,00	22800,06
1253,00	22744,83
1254,00	22649,89
1255,00	22629,77
1256,00	22512,58
1257,00	22411,13
1258,00	22296,60
1259,00	22197,42
1260,00	22172,83
1261,00	22057,65
1262,00	21988,02
1263,00	21891,59
1264,00	21809,49
1265,00	21762,96
1266,00	21674,89
1267,00	21551,28
1268,00	21496,73
1269,00	21397,61
1270,00	21322,44
1271,00	21208,72
1272,00	21213,31
1273,00	21125,21
1274,00	21002,75
1275,00	20931,50
1276,00	20863,60
1277,00	20688,71
1278,00	20731,03
1279,00	20476,60
1280,00	20605,67
1281,00	20371,27
1282,00	20387,72
1283,00	20228,75
1284,00	20214,05
1285,00	20035,11
1286,00	20083,48
1287,00	19863,85
1288,00	19882,32
1289,00	19809,89
1290,00	19649,23
1291,00	19606,01
1292,00	19584,70
1293,00	19483,81
1294,00	19344,62
1295,00	19273,34
1296,00	19270,75
1297,00	19139,72
1298,00	19046,09
1299,00	18969,89
1300,00	18902,76
1301,00	18917,86
1302,00	18758,99
1303,00	18739,02
1304,00	18654,10
1305,00	18460,46
1306,00	18420,08
1307,00	18454,38
1308,00	18323,06
1309,00	18242,95
1310,00	18165,74
1311,00	18112,63
1312,00	18030,77
1313,00	17970,85
1314,00	17876,92
1315,00	17865,25
1316,00	17710,02
1317,00	17668,45
1318,00	17565,22
1319,00	17517,91
1320,00	17450,72
1321,00	17400,79
1322,00	17264,32
1323,00	17225,16
1324,00	17185,31
1325,00	17050,02
1326,00	17053,02
1327,00	16960,77
1328,00	16927,78
1329,00	16811,66
1330,00	16787,35
1331,00	16605,98
1332,00	16656,63
1333,00	16584,41
1334,00	16449,22
1335,00	16399,85
1336,00	16361,84
1337,00	16282,67
1338,00	16255,52
1339,00	16242,16
1340,00	16166,67
1341,00	16010,67
1342,00	15975,47
1343,00	15873,14
1344,00	15780,92
1345,00	15770,90
1346,00	15748,15
1347,00	15726,15
1348,00	15593,37
1349,00	15497,72
1350,00	15480,96
1351,00	15363,34
1352,00	15231,49
1353,00	15358,97
1354,00	15211,45
1355,00	15188,98
1356,00	15145,61
1357,00	14982,92
1358,00	14956,62
1359,00	14821,08
1360,00	14877,26
1361,00	14771,15
1362,00	14780,58
1363,00	14713,45
1364,00	14595,08
1365,00	14656,62
1366,00	14420,88
1367,00	14529,20
1368,00	14410,43
1369,00	14328,98
1370,00	14316,46
1371,00	14237,45
1372,00	14227,80
1373,00	14118,86
1374,00	14055,63
1375,00	13971,13
1376,00	13912,36
1377,00	13960,08
1378,00	13843,83
1379,00	13790,47
1380,00	13753,55
1381,00	13656,40
1382,00	13659,68
1383,00	13604,00
1384,00	13616,74
1385,00	13466,44
1386,00	13372,98
1387,00	13430,52
1388,00	13347,58
1389,00	13293,37
1390,00	13173,97
1391,00	13125,88
1392,00	13109,40
1393,00	13097,73
1394,00	13047,61
1395,00	13027,89
1396,00	12907,65
1397,00	12824,54
1398,00	12909,40
1399,00	12773,68
1400,00	12756,26
1401,00	12835,00
1402,00	12664,73
1403,00	12602,66
1404,00	12501,14
1405,00	12558,04
1406,00	12452,71
1407,00	12397,88
1408,00	12396,04
1409,00	12297,21
1410,00	12294,33
1411,00	12209,86
1412,00	12161,52
1413,00	12124,85
1414,00	12070,14
1415,00	11990,72
1416,00	11980,17
1417,00	11966,60
1418,00	11863,74
1419,00	11840,33
1420,00	11761,16
1421,00	11774,64
1422,00	11655,24
1423,00	11673,09
1424,00	11658,08
1425,00	11521,77
1426,00	11574,73
1427,00	11516,15
1428,00	11447,22
1429,00	11443,32
1430,00	11344,58
1431,00	11304,04
1432,00	11270,87
1433,00	11259,79
1434,00	11247,34
1435,00	11167,85
1436,00	11133,30
1437,00	11108,74
1438,00	11017,12
1439,00	10978,86
1440,00	10963,76
1441,00	10897,07
1442,00	10879,34
1443,00	10821,58
1444,00	10751,39
1445,00	10716,56
1446,00	10726,21
1447,00	10639,95
1448,00	10634,40
1449,00	10560,37
1450,00	10582,15
1451,00	10521,61
1452,00	10462,73
1453,00	10418,66
1454,00	10386,95
1455,00	10356,50
1456,00	10329,47
1457,00	10259,94
1458,00	10261,00
1459,00	10158,39
1460,00	10113,17
1461,00	10128,87
1462,00	10042,65
1463,00	10003,64
1464,00	10046,39
1465,00	9941,13
1466,00	9936,10
1467,00	9879,53
1468,00	9865,98
1469,00	9843,83
1470,00	9771,24
1471,00	9748,92
1472,00	9722,30
1473,00	9650,31
1474,00	9638,86
1475,00	9585,34
1476,00	9548,79
1477,00	9533,25
1478,00	9486,22
1479,00	9458,82
1480,00	9422,56
1481,00	9355,12
1482,00	9339,21
1483,00	9322,79
1484,00	9295,23
1485,00	9253,73
1486,00	9211,32
1487,00	9158,55
1488,00	9164,57
1489,00	9128,43
1490,00	9067,80
1491,00	9031,85
1492,00	8974,96
1493,00	8960,32
1494,00	8933,89
1495,00	8954,67
1496,00	8842,51
1497,00	8811,96
1498,00	8766,52
1499,00	8810,06
1500,00	8698,96
1501,00	8670,94
1502,00	8636,64
1503,00	8618,07
1504,00	8580,44
1505,00	8594,73
1506,00	8558,59
1507,00	8456,98
1508,00	8465,59
1509,00	8397,94
1510,00	8366,10
1511,00	8357,90
1512,00	8303,91
1513,00	8305,28
1514,00	8256,88
1515,00	8192,06
1516,00	8194,03
1517,00	8168,28
1518,00	8190,81
1519,00	8104,99
1520,00	8079,19
1521,00	8045,95
1522,00	8016,18
1523,00	8001,76
1524,00	7963,53
1525,00	7933,04
1526,00	7890,88
1527,00	7864,45
1528,00	7843,29
1529,00	7790,52
1530,00	7783,16
1531,00	7746,17
1532,00	7739,56
1533,00	7696,49
1534,00	7650,15
1535,00	7608,83
1536,00	7578,40
1537,00	7588,02
1538,00	7560,49
1539,00	7544,73
1540,00	7508,69
1541,00	7478,29
1542,00	7425,33
1543,00	7398,37
1544,00	7364,98
1545,00	7332,84
1546,00	7285,21
1547,00	7270,61
1548,00	7259,16
1549,00	7213,28
1550,00	7192,00
1551,00	7168,47
1552,00	7128,90
1553,00	7126,21
1554,00	7095,54
1555,00	7068,23
1556,00	7047,07
1557,00	7004,85
1558,00	6973,49
1559,00	6948,83
1560,00	6931,14
1561,00	6883,58
1562,00	6877,80
1563,00	6854,96
1564,00	6806,71
1565,00	6795,17
1566,00	6758,97
1567,00	6746,27
1568,00	6698,55
1569,00	6673,74
1570,00	6639,32
1571,00	6609,58
1572,00	6596,82
1573,00	6566,73
1574,00	6563,49
1575,00	6552,81
1576,00	6493,11
1577,00	6484,13
1578,00	6468,77
1579,00	6420,62
1580,00	6401,55
1581,00	6375,99
1582,00	6354,46
1583,00	6327,93
1584,00	6300,16
1585,00	6281,19
1586,00	6272,48
1587,00	6240,12
1588,00	6200,08
1589,00	6186,32
1590,00	6125,46
1591,00	6109,98
1592,00	6124,25
1593,00	6094,41
1594,00	6074,91
1595,00	6016,14
1596,00	5996,95
1597,00	5982,85
1598,00	5938,84
1599,00	5944,06
1600,00	5922,96
1601,00	5873,09
1602,00	5856,36
1603,00	5848,53
1604,00	5840,88
1605,00	5808,74
1606,00	5786,49
1607,00	5754,47
1608,00	5728,10
1609,00	5701,33
1610,00	5693,06
1611,00	5648,49
1612,00	5650,46
1613,00	5622,40
1614,00	5582,74
1615,00	5561,08
1616,00	5550,50
1617,00	5525,41
1618,00	5502,22
1619,00	5475,57
1620,00	5467,77
1621,00	5443,90
1622,00	5420,43
1623,00	5400,74
1624,00	5369,03
1625,00	5340,48
1626,00	5333,52
1627,00	5308,80
1628,00	5277,56
1629,00	5262,15
1630,00	5252,41
1631,00	5210,94
1632,00	5224,36
1633,00	5178,39
1634,00	5173,74
1635,00	5137,23
1636,00	5136,85
1637,00	5084,17
1638,00	5089,70
1639,00	5073,97
1640,00	5052,06
1641,00	5027,47
1642,00	4995,33
1643,00	4995,58
1644,00	4948,33
1645,00	4949,67
1646,00	4928,98
1647,00	4917,31
1648,00	4881,02
1649,00	4859,42
1650,00	4841,88
1651,00	4827,43
1652,00	4801,19
1653,00	4795,94
1654,00	4777,06
1655,00	4764,24
1656,00	4732,16
1657,00	4712,15
1658,00	4707,19
1659,00	4696,83
1660,00	4661,07
1661,00	4656,20
1662,00	4632,54
1663,00	4608,30
1664,00	4603,30
1665,00	4566,85
1666,00	4546,54
1667,00	4539,58
1668,00	4526,85
1669,00	4501,32
1670,00	4482,78
1671,00	4474,98
1672,00	4449,20
1673,00	4424,52
1674,00	4429,73
1675,00	4398,74
1676,00	4389,91
1677,00	4368,94
1678,00	4357,89
1679,00	4335,33
1680,00	4309,24
1681,00	4319,94
1682,00	4308,86
1683,00	4256,84
1684,00	4251,04
1685,00	4244,42
1686,00	4237,77
1687,00	4211,87
1688,00	4188,22
1689,00	4180,70
1690,00	4175,39
1691,00	4147,34
1692,00	4131,89
1693,00	4123,43
1694,00	4114,16
1695,00	4091,29
1696,00	4088,79
1697,00	4067,70
1698,00	4041,45
1699,00	4037,30
1700,00	4018,61
1701,00	4017,30
1702,00	3989,18
1703,00	3963,59
1704,00	3954,60
1705,00	3939,46
1706,00	3939,00
1707,00	3911,38
1708,00	3897,74
1709,00	3882,70
1710,00	3875,80
1711,00	3862,73
1712,00	3845,66
1713,00	3834,36
1714,00	3812,73
1715,00	3800,87
1716,00	3795,69
1717,00	3770,76
1718,00	3770,73
1719,00	3752,81
1720,00	3728,63
1721,00	3730,97
1722,00	3719,39
1723,00	3701,01
1724,00	3695,77
1725,00	3686,56
1726,00	3665,00
1727,00	3638,66
1728,00	3638,66
1729,00	3615,63
1730,00	3612,29
1731,00	3598,09
1732,00	3578,30
1733,00	3564,95
1734,00	3565,79
1735,00	3554,46
1736,00	3531,84
1737,00	3523,44
1738,00	3514,33
1739,00	3499,07
1740,00	3485,96
1741,00	3480,06
1742,00	3465,15
1743,00	3455,50
1744,00	3435,16
1745,00	3422,92
1746,00	3431,51
1747,00	3406,60
1748,00	3400,52
1749,00	3389,16
1750,00	3352,96
1751,00	3368,56
1752,00	3363,91
1753,00	3351,21
1754,00	3342,88
1755,00	3324,18
1756,00	3312,67
1757,00	3300,09
1758,00	3289,61
1759,00	3280,31
1760,00	3263,99
1761,00	3266,64
1762,00	3253,16
1763,00	3242,86
1764,00	3226,26
1765,00	3220,92
1766,00	3227,01
1767,00	3205,35
1768,00	3186,19
1769,00	3180,13
1770,00	3154,20
1771,00	3163,25
1772,00	3145,43
1773,00	3145,02
1774,00	3141,75
1775,00	3124,21
1776,00	3109,29
1777,00	3112,57
1778,00	3082,17
1779,00	3086,39
1780,00	3069,82
1781,00	3065,29
1782,00	3055,83
1783,00	3043,88
1784,00	3028,56
1785,00	3016,01
1786,00	3016,42
1787,00	3005,68
1788,00	3002,91
1789,00	2990,95
1790,00	2987,15
1791,00	2973,39
1792,00	2961,78
1793,00	2940,09
1794,00	2942,83
1795,00	2938,21
1796,00	2931,44
1797,00	2920,99
1798,00	2908,26
1799,00	2897,40
1800,00	2886,79
1801,00	2888,63
1802,00	2874,05
1803,00	2860,07
1804,00	2849,27
1805,00	2841,38
1806,00	2831,52
1807,00	2827,99
1808,00	2845,03
1809,00	2810,89
1810,00	2816,16
1811,00	2794,88
1812,00	2787,02
1813,00	2776,50
1814,00	2776,16
1815,00	2766,29
1816,00	2772,13
1817,00	2747,29
1818,00	2745,04
1819,00	2733,81
1820,00	2722,89
1821,00	2711,56
1822,00	2720,26
1823,00	2713,02
1824,00	2693,89
1825,00	2679,73
1826,00	2675,51
1827,00	2652,92
1828,00	2657,91
1829,00	2652,86
1830,00	2642,28
1831,00	2645,65
1832,00	2632,79
1833,00	2635,41
1834,00	2625,89
1835,00	2621,46
1836,00	2614,72
1837,00	2598,06
1838,00	2599,43
1839,00	2588,76
1840,00	2577,21
1841,00	2581,49
1842,00	2563,29
1843,00	2546,53
1844,00	2562,08
1845,00	2544,85
1846,00	2548,25
1847,00	2544,44
1848,00	2526,22
1849,00	2516,39
1850,00	2518,23
1851,00	2497,41
1852,00	2497,51
1853,00	2477,44
1854,00	2487,52
1855,00	2484,68
1856,00	2479,03
1857,00	2462,06
1858,00	2453,79
1859,00	2443,49
1860,00	2457,94
1861,00	2438,15
1862,00	2428,04
1863,00	2407,94
1864,00	2420,58
1865,00	2408,94
1866,00	2403,98
1867,00	2416,90
1868,00	2399,21
1869,00	2392,09
1870,00	2397,80
1871,00	2388,06
1872,00	2366,22
1873,00	2366,75
1874,00	2345,12
1875,00	2359,63
1876,00	2342,81
1877,00	2352,14
1878,00	2354,11
1879,00	2323,72
1880,00	2319,35
1881,00	2316,54
1882,00	2313,54
1883,00	2312,42
1884,00	2311,20
1885,00	2302,93
1886,00	2283,36
1887,00	2275,56
1888,00	2285,92
1889,00	2282,52
1890,00	2271,91
1891,00	2264,17
1892,00	2271,22
1893,00	2258,65
1894,00	2246,95
1895,00	2247,38
1896,00	2236,15
1897,00	2244,57
1898,00	2234,77
1899,00	2228,85
1900,00	2220,79
1901,00	2224,48
1902,00	2221,70
1903,00	2203,13
1904,00	2194,86
1905,00	2198,76
1906,00	2184,53
1907,00	2194,70
1908,00	2187,28
1909,00	2190,46
1910,00	2172,24
1911,00	2173,39
1912,00	2163,72
1913,00	2164,31
1914,00	2153,76
1915,00	2149,30
1916,00	2137,38
1917,00	2138,81
1918,00	2140,81
1919,00	2128,95
1920,00	2127,80
1921,00	2112,82
1922,00	2106,64
1923,00	2104,64
1924,00	2109,98
1925,00	2095,40
1926,00	2099,40
1927,00	2090,63
1928,00	2096,65
1929,00	2080,05
1930,00	2080,46
1931,00	2067,69
1932,00	2072,84
1933,00	2064,70
1934,00	2063,14
1935,00	2058,14
1936,00	2062,85
1937,00	2054,15
1938,00	2050,43
1939,00	2046,07
1940,00	2036,17
1941,00	2042,04
1942,00	2025,09
1943,00	2030,43
1944,00	2025,09
1945,00	2019,85
1946,00	2015,51
1947,00	2006,21
1948,00	2015,86
1949,00	2005,12
1950,00	1994,98
1951,00	1981,93
1952,00	1991,73
1953,00	1979,81
1954,00	1984,34
1955,00	1972,98
1956,00	1977,38
1957,00	1968,36
1958,00	1961,62
1959,00	1955,07
1960,00	1958,56
1961,00	1958,78
1962,00	1947,11
1963,00	1945,23
1964,00	1945,11
1965,00	1939,74
1966,00	1924,51
1967,00	1928,98
1968,00	1927,29
1969,00	1925,86
1970,00	1919,15
1971,00	1914,65
1972,00	1911,84
1973,00	1913,43
1974,00	1902,45
1975,00	1897,89
1976,00	1903,23
1977,00	1895,83
1978,00	1886,78
1979,00	1894,65
1980,00	1886,35
1981,00	1884,47
1982,00	1881,54
1983,00	1879,61
1984,00	1876,74
1985,00	1868,31
1986,00	1864,60
1987,00	1864,56
1988,00	1857,26
1989,00	1855,86
1990,00	1852,80
1991,00	1843,47
1992,00	1849,05
1993,00	1849,40
1994,00	1829,36
1995,00	1838,19
1996,00	1832,17
1997,00	1828,33
1998,00	1823,06
1999,00	1823,68
2000,00	1810,54
2001,00	1822,19
2002,00	1817,25
2003,00	1806,92
2004,00	1811,45
2005,00	1804,21
2006,00	1790,73
2007,00	1796,28
2008,00	1795,75
2009,00	1785,17
2010,00	1795,32
2011,00	1780,77
2012,00	1781,90
2013,00	1778,40
2014,00	1780,68
2015,00	1766,82
2016,00	1769,57
2017,00	1762,45
2018,00	1766,64
2019,00	1764,45
2020,00	1763,86
2021,00	1753,87
2022,00	1745,57
2023,00	1753,28
2024,00	1742,92
2025,00	1753,72
2026,00	1737,36
2027,00	1739,80
2028,00	1734,65
2029,00	1732,21
2030,00	1727,75
2031,00	1728,63
2032,00	1723,73
2033,00	1723,57
2034,00	1718,14
2035,00	1712,62
2036,00	1712,74
2037,00	1707,03
2038,00	1702,19
2039,00	1698,45
2040,00	1701,48
2041,00	1695,98
2042,00	1693,46
2043,00	1690,43
2044,00	1687,81
2045,00	1683,31
2046,00	1683,31
2047,00	1683,31
>>>>>End Processed Spectral Data<<<<<
