SpectraSuite Datei
++++++++++++++++++++++++++++++++++++
Datum: Wed Sep 18 18:22:54 CEST 2024
Benutzer: Student
Dark-Spektrum vorhanden: Nein
Referenz-Spektrum vorhanden: Nein
Zahl der probierten Teilspektren: 1
Spektrometer: USB2+H15728
Integrationszeit (usec): 5000 (USB2+H15728)
Spektren Durchschnitt berechnet: 500 (USB2+H15728)
Boxcar Glättung: 0 (USB2+H15728)
Dunkelstromkorrektur: Nein (USB2+H15728)
Puls/Lampe aktiviert: Nein (USB2+H15728)
Correct for Detector Non-linearity: Nein (USB2+H15728)
Streulichtkorrektur: Nein (USB2+H15728)
Anzahl Pixel in verarbeitetem Spektrum: 2048
>>>>>Begin Processed Spectral Data<<<<<
0,00	975,17
1,00	975,17
2,00	975,17
3,00	944,45
4,00	942,68
5,00	943,63
6,00	949,10
7,00	957,24
8,00	965,16
9,00	978,86
10,00	993,04
11,00	1007,52
12,00	1021,85
13,00	1038,22
14,00	1053,61
15,00	1067,39
16,00	1087,28
17,00	1105,38
18,00	1120,29
19,00	1139,35
20,00	1152,03
21,00	1166,07
22,00	1183,54
23,00	1216,01
24,00	1286,16
25,00	1302,25
26,00	1316,42
27,00	1330,46
28,00	1338,75
29,00	1353,07
30,00	1357,03
31,00	1368,85
32,00	1376,16
33,00	1381,65
34,00	1387,21
35,00	1400,19
36,00	1402,72
37,00	1406,51
38,00	1410,82
39,00	1414,69
40,00	1420,68
41,00	1422,06
42,00	1422,46
43,00	1425,22
44,00	1429,12
45,00	1429,78
46,00	1434,41
47,00	1437,50
48,00	1438,74
49,00	1439,86
50,00	1442,28
51,00	1443,71
52,00	1445,81
53,00	1452,09
54,00	1453,06
55,00	1457,97
56,00	1461,86
57,00	1460,93
58,00	1469,73
59,00	1475,83
60,00	1476,08
61,00	1481,89
62,00	1490,10
63,00	1495,47
64,00	1500,06
65,00	1506,46
66,00	1513,14
67,00	1518,97
68,00	1528,83
69,00	1536,67
70,00	1549,17
71,00	1556,38
72,00	1567,13
73,00	1572,59
74,00	1585,62
75,00	1592,59
76,00	1606,55
77,00	1619,80
78,00	1632,76
79,00	1642,19
80,00	1658,46
81,00	1671,90
82,00	1679,39
83,00	1698,43
84,00	1716,30
85,00	1729,88
86,00	1752,24
87,00	1766,68
88,00	1783,15
89,00	1800,27
90,00	1818,04
91,00	1843,61
92,00	1861,73
93,00	1889,07
94,00	1904,46
95,00	1924,15
96,00	1938,54
97,00	1971,74
98,00	1992,01
99,00	2016,33
100,00	2042,92
101,00	2074,03
102,00	2103,29
103,00	2130,48
104,00	2160,68
105,00	2176,26
106,00	2222,38
107,00	2244,04
108,00	2285,01
109,00	2302,12
110,00	2354,25
111,00	2394,02
112,00	2415,50
113,00	2460,68
114,00	2499,28
115,00	2546,22
116,00	2575,30
117,00	2633,80
118,00	2692,25
119,00	2699,02
120,00	2763,56
121,00	2822,09
122,00	2837,14
123,00	2890,29
124,00	2951,74
125,00	3003,01
126,00	3069,03
127,00	3134,44
128,00	3155,71
129,00	3263,44
130,00	3278,65
131,00	3333,51
132,00	3404,66
133,00	3484,43
134,00	3523,51
135,00	3600,40
136,00	3686,36
137,00	3763,53
138,00	3825,76
139,00	3919,33
140,00	3973,35
141,00	4076,95
142,00	4108,02
143,00	4188,23
144,00	4262,51
145,00	4325,57
146,00	4481,26
147,00	4545,69
148,00	4567,90
149,00	4776,42
150,00	4834,06
151,00	4966,83
152,00	4962,79
153,00	5009,85
154,00	5220,65
155,00	5299,66
156,00	5308,18
157,00	5501,85
158,00	5563,50
159,00	5727,13
160,00	5812,68
161,00	5922,58
162,00	5969,73
163,00	6087,05
164,00	6304,56
165,00	6335,98
166,00	6486,15
167,00	6606,65
168,00	6716,85
169,00	6871,28
170,00	6983,60
171,00	7084,15
172,00	7190,03
173,00	7372,42
174,00	7546,58
175,00	7676,19
176,00	7865,33
177,00	7952,73
178,00	8086,13
179,00	8206,32
180,00	8313,73
181,00	8555,80
182,00	8726,04
183,00	8842,01
184,00	8989,12
185,00	9088,97
186,00	9367,27
187,00	9502,77
188,00	9672,02
189,00	9828,25
190,00	10061,68
191,00	10114,57
192,00	10406,87
193,00	10649,66
194,00	10769,38
195,00	10917,71
196,00	11202,84
197,00	11419,30
198,00	11578,88
199,00	11712,04
200,00	11959,84
201,00	12350,21
202,00	12437,85
203,00	12444,60
204,00	12880,89
205,00	13127,13
206,00	13246,02
207,00	13609,13
208,00	13795,48
209,00	14041,55
210,00	14394,37
211,00	14515,31
212,00	14816,56
213,00	14940,53
214,00	15235,36
215,00	15524,99
216,00	15761,25
217,00	16135,61
218,00	16235,55
219,00	16574,82
220,00	16905,55
221,00	17146,76
222,00	17384,93
223,00	17746,32
224,00	18120,54
225,00	18378,08
226,00	18734,63
227,00	18752,85
228,00	19363,31
229,00	19435,56
230,00	19727,30
231,00	20058,95
232,00	20487,77
233,00	20912,16
234,00	20957,33
235,00	21496,80
236,00	21780,81
237,00	22058,65
238,00	22528,89
239,00	22718,04
240,00	23321,14
241,00	23279,99
242,00	24066,98
243,00	24125,81
244,00	24647,04
245,00	24833,09
246,00	25315,15
247,00	25858,88
248,00	25815,23
249,00	26739,61
250,00	26600,94
251,00	27250,81
252,00	27301,32
253,00	27760,40
254,00	28818,25
255,00	28531,13
256,00	29605,37
257,00	29657,12
258,00	30332,72
259,00	30406,44
260,00	31163,50
261,00	31010,16
262,00	31520,89
263,00	32652,20
264,00	32618,92
265,00	32861,24
266,00	33673,10
267,00	33678,98
268,00	34662,39
269,00	34936,42
270,00	34874,02
271,00	35754,99
272,00	36141,12
273,00	36742,29
274,00	37286,68
275,00	37404,15
276,00	37745,86
277,00	38303,26
278,00	38056,37
279,00	39183,74
280,00	40171,07
281,00	39857,61
282,00	40496,92
283,00	41044,25
284,00	41249,33
285,00	42311,67
286,00	41946,53
287,00	42684,83
288,00	43104,93
289,00	42855,99
290,00	43103,13
291,00	43600,97
292,00	44349,85
293,00	43462,74
294,00	43898,17
295,00	44031,57
296,00	44623,32
297,00	43994,60
298,00	45314,60
299,00	44860,63
300,00	45697,40
301,00	45493,85
302,00	45649,31
303,00	46330,46
304,00	45311,40
305,00	45886,33
306,00	46039,29
307,00	45962,20
308,00	46097,69
309,00	45727,42
310,00	45218,01
311,00	45198,03
312,00	45647,20
313,00	44986,80
314,00	44996,27
315,00	45396,11
316,00	44892,96
317,00	44389,41
318,00	44501,50
319,00	43642,61
320,00	43779,36
321,00	43593,12
322,00	42842,34
323,00	42828,61
324,00	42035,62
325,00	41402,27
326,00	41336,77
327,00	40916,39
328,00	40814,06
329,00	40594,45
330,00	39770,04
331,00	39075,91
332,00	38443,55
333,00	38128,62
334,00	37737,54
335,00	37431,63
336,00	36824,54
337,00	36438,89
338,00	36261,75
339,00	35468,90
340,00	34917,29
341,00	34705,16
342,00	33899,93
343,00	33477,64
344,00	32839,52
345,00	32728,60
346,00	31850,44
347,00	31750,05
348,00	31036,14
349,00	30798,92
350,00	30173,32
351,00	30209,77
352,00	29493,94
353,00	28951,60
354,00	28691,76
355,00	28272,07
356,00	28055,36
357,00	27508,11
358,00	27349,54
359,00	26708,50
360,00	26554,12
361,00	26329,37
362,00	26053,52
363,00	25387,93
364,00	25508,88
365,00	25244,64
366,00	24809,96
367,00	24449,11
368,00	24518,09
369,00	24154,09
370,00	23784,89
371,00	23769,34
372,00	23305,02
373,00	23353,39
374,00	23043,52
375,00	22773,66
376,00	22639,42
377,00	22293,42
378,00	22195,05
379,00	21804,94
380,00	21689,01
381,00	21600,47
382,00	21304,26
383,00	21155,68
384,00	20636,42
385,00	20698,32
386,00	20532,49
387,00	20287,09
388,00	20054,30
389,00	19916,67
390,00	19686,75
391,00	19564,66
392,00	19395,51
393,00	19210,02
394,00	18832,09
395,00	18906,79
396,00	18770,12
397,00	18521,38
398,00	18243,77
399,00	18229,59
400,00	18039,88
401,00	17865,45
402,00	17756,16
403,00	17674,55
404,00	17510,10
405,00	17375,60
406,00	17244,63
407,00	16979,22
408,00	16857,54
409,00	16678,44
410,00	16602,51
411,00	16384,84
412,00	16335,09
413,00	16131,06
414,00	15975,27
415,00	15832,23
416,00	15794,88
417,00	15621,52
418,00	15461,66
419,00	15306,09
420,00	15106,55
421,00	14943,18
422,00	14976,54
423,00	14796,41
424,00	14602,51
425,00	14505,40
426,00	14423,03
427,00	14183,22
428,00	14123,50
429,00	13987,41
430,00	13859,60
431,00	13710,35
432,00	13476,51
433,00	13471,04
434,00	13306,10
435,00	13178,60
436,00	13047,44
437,00	12993,49
438,00	12796,89
439,00	12741,97
440,00	12615,51
441,00	12550,17
442,00	12386,80
443,00	12335,82
444,00	12161,50
445,00	12077,43
446,00	11995,06
447,00	11855,60
448,00	11794,49
449,00	11734,62
450,00	11632,37
451,00	11504,45
452,00	11457,59
453,00	11395,14
454,00	11265,46
455,00	11177,10
456,00	11126,60
457,00	11070,42
458,00	10992,32
459,00	10877,62
460,00	10884,24
461,00	10762,40
462,00	10818,97
463,00	10741,74
464,00	10694,14
465,00	10694,89
466,00	10578,09
467,00	10550,92
468,00	10531,36
469,00	10483,25
470,00	10449,13
471,00	10387,03
472,00	10341,19
473,00	10338,68
474,00	10292,81
475,00	10303,19
476,00	10279,32
477,00	10244,88
478,00	10177,42
479,00	10195,56
480,00	10172,62
481,00	10206,87
482,00	10115,08
483,00	10125,72
484,00	10106,94
485,00	10070,00
486,00	10068,18
487,00	10064,91
488,00	10048,64
489,00	10034,90
490,00	9983,86
491,00	9973,86
492,00	9961,79
493,00	9997,65
494,00	9979,91
495,00	9984,23
496,00	9968,33
497,00	9994,88
498,00	10000,83
499,00	10001,70
500,00	9971,00
501,00	9957,88
502,00	10016,86
503,00	10025,77
504,00	10030,67
505,00	10012,63
506,00	10004,05
507,00	10073,91
508,00	10023,83
509,00	10058,13
510,00	10017,76
511,00	10088,29
512,00	10113,86
513,00	10073,27
514,00	10121,01
515,00	10136,66
516,00	10170,32
517,00	10139,00
518,00	10231,81
519,00	10231,23
520,00	10217,46
521,00	10208,90
522,00	10337,49
523,00	10343,36
524,00	10336,63
525,00	10396,47
526,00	10490,48
527,00	10443,47
528,00	10419,43
529,00	10529,95
530,00	10587,84
531,00	10682,30
532,00	10731,31
533,00	10770,44
534,00	10766,85
535,00	10745,63
536,00	10855,17
537,00	10895,14
538,00	10954,63
539,00	11016,07
540,00	11069,35
541,00	11171,91
542,00	11238,01
543,00	11323,74
544,00	11370,51
545,00	11393,01
546,00	11482,07
547,00	11615,56
548,00	11638,86
549,00	11762,45
550,00	11809,06
551,00	11878,89
552,00	11943,96
553,00	11966,94
554,00	12104,36
555,00	12318,87
556,00	12348,21
557,00	12432,03
558,00	12466,16
559,00	12643,99
560,00	12803,86
561,00	12863,17
562,00	12963,84
563,00	13063,30
564,00	13118,79
565,00	13226,73
566,00	13346,56
567,00	13474,73
568,00	13609,34
569,00	13771,39
570,00	13769,73
571,00	13890,31
572,00	14069,72
573,00	14236,72
574,00	14413,04
575,00	14457,49
576,00	14624,00
577,00	14647,55
578,00	14889,65
579,00	15009,65
580,00	15163,05
581,00	15309,16
582,00	15372,03
583,00	15648,56
584,00	15782,93
585,00	15958,47
586,00	16165,75
587,00	16203,92
588,00	16396,89
589,00	16558,66
590,00	16821,44
591,00	16845,88
592,00	17091,80
593,00	17206,79
594,00	17379,46
595,00	17605,27
596,00	17687,51
597,00	18042,84
598,00	18156,29
599,00	18338,66
600,00	18500,24
601,00	18615,92
602,00	18809,24
603,00	19095,46
604,00	19272,14
605,00	19434,75
606,00	19635,38
607,00	19818,18
608,00	20154,62
609,00	20204,01
610,00	20380,95
611,00	20704,11
612,00	20913,18
613,00	20924,83
614,00	21222,63
615,00	21640,76
616,00	21736,58
617,00	21909,51
618,00	22037,20
619,00	22379,16
620,00	22535,25
621,00	22716,90
622,00	23050,19
623,00	23120,99
624,00	23564,11
625,00	23774,38
626,00	23923,55
627,00	24128,99
628,00	24287,72
629,00	24688,94
630,00	24739,73
631,00	25187,89
632,00	25136,04
633,00	25328,84
634,00	25700,73
635,00	25949,88
636,00	26258,72
637,00	26316,73
638,00	26342,62
639,00	26675,12
640,00	27093,03
641,00	27326,01
642,00	27518,94
643,00	27630,92
644,00	27757,35
645,00	28012,37
646,00	28466,07
647,00	28842,18
648,00	29132,54
649,00	29090,17
650,00	29034,32
651,00	29546,80
652,00	29894,49
653,00	30324,75
654,00	30443,30
655,00	30671,70
656,00	30804,77
657,00	31083,84
658,00	31565,06
659,00	31880,24
660,00	32202,77
661,00	32267,41
662,00	32430,58
663,00	32104,68
664,00	32410,81
665,00	32630,86
666,00	32992,38
667,00	33293,23
668,00	33635,93
669,00	33551,98
670,00	33198,15
671,00	33596,93
672,00	33984,76
673,00	34329,89
674,00	34905,72
675,00	35066,43
676,00	35110,29
677,00	34830,98
678,00	34544,75
679,00	35155,09
680,00	35752,23
681,00	36186,70
682,00	36381,77
683,00	36754,36
684,00	36784,33
685,00	36362,29
686,00	36433,22
687,00	36868,50
688,00	37252,69
689,00	37744,44
690,00	38295,79
691,00	38227,88
692,00	38305,43
693,00	37740,35
694,00	37491,18
695,00	37921,39
696,00	38327,60
697,00	38924,39
698,00	39396,59
699,00	39495,97
700,00	39670,05
701,00	39618,32
702,00	39029,53
703,00	39159,14
704,00	39500,22
705,00	39964,15
706,00	40548,00
707,00	40881,72
708,00	41109,89
709,00	41368,68
710,00	40882,83
711,00	40137,50
712,00	40135,20
713,00	40634,24
714,00	41496,41
715,00	41771,80
716,00	41930,23
717,00	42245,80
718,00	42382,83
719,00	42354,39
720,00	41612,26
721,00	41213,66
722,00	41721,07
723,00	42020,76
724,00	42690,86
725,00	42983,17
726,00	43413,96
727,00	43741,78
728,00	43532,51
729,00	43743,10
730,00	42236,68
731,00	42095,27
732,00	42668,62
733,00	43221,74
734,00	43422,75
735,00	44422,19
736,00	44656,51
737,00	44612,56
738,00	44659,37
739,00	44223,25
740,00	43813,92
741,00	43191,39
742,00	43600,28
743,00	44067,16
744,00	44795,02
745,00	45058,65
746,00	45408,81
747,00	45757,18
748,00	45903,78
749,00	46007,97
750,00	45713,30
751,00	44748,43
752,00	44471,24
753,00	44762,13
754,00	45546,03
755,00	45861,57
756,00	45723,81
757,00	46507,34
758,00	46767,40
759,00	47277,23
760,00	46807,91
761,00	46729,59
762,00	45890,75
763,00	45089,27
764,00	45497,05
765,00	46001,61
766,00	46375,16
767,00	46846,84
768,00	47221,19
769,00	47502,63
770,00	47753,86
771,00	47418,33
772,00	47420,46
773,00	47438,60
774,00	46013,10
775,00	45903,06
776,00	46554,47
777,00	47444,70
778,00	47661,16
779,00	48018,59
780,00	48050,61
781,00	48526,87
782,00	48369,86
783,00	48242,22
784,00	48419,32
785,00	47505,96
786,00	46654,75
787,00	46591,62
788,00	47112,91
789,00	47958,80
790,00	47791,21
791,00	48161,64
792,00	48453,79
793,00	48784,13
794,00	48953,93
795,00	49317,40
796,00	49107,65
797,00	49050,25
798,00	47782,52
799,00	47010,88
800,00	46754,86
801,00	47589,68
802,00	47760,49
803,00	48457,38
804,00	48811,98
805,00	49149,59
806,00	49485,02
807,00	49884,89
808,00	49926,29
809,00	49753,76
810,00	49477,91
811,00	48167,44
812,00	47222,95
813,00	47315,51
814,00	47726,55
815,00	48284,69
816,00	48692,29
817,00	49155,00
818,00	49734,11
819,00	49810,82
820,00	50085,12
821,00	50211,91
822,00	49663,64
823,00	49676,14
824,00	48919,08
825,00	47566,63
826,00	47459,89
827,00	47924,89
828,00	48483,01
829,00	49015,82
830,00	49741,93
831,00	49962,14
832,00	50372,60
833,00	50533,61
834,00	50645,55
835,00	50164,23
836,00	49949,93
837,00	49548,63
838,00	49224,80
839,00	48020,17
840,00	48031,16
841,00	48201,41
842,00	48894,39
843,00	49633,24
844,00	49774,27
845,00	50424,59
846,00	50697,95
847,00	51000,15
848,00	50715,99
849,00	50561,26
850,00	50162,27
851,00	50261,64
852,00	50169,75
853,00	49431,27
854,00	48563,86
855,00	48634,19
856,00	49327,99
857,00	49931,49
858,00	50295,00
859,00	50756,19
860,00	51021,75
861,00	50990,62
862,00	50911,82
863,00	50693,64
864,00	50485,81
865,00	50556,69
866,00	50768,04
867,00	50695,53
868,00	49830,75
869,00	49039,32
870,00	49035,51
871,00	49695,63
872,00	49919,00
873,00	50502,51
874,00	50628,30
875,00	51087,37
876,00	51113,44
877,00	50862,62
878,00	50543,96
879,00	50657,32
880,00	51087,69
881,00	51135,62
882,00	51418,88
883,00	51258,03
884,00	50643,70
885,00	50276,59
886,00	50576,69
887,00	51098,50
888,00	50866,34
889,00	51059,82
890,00	51220,14
891,00	51373,20
892,00	50968,17
893,00	50453,52
894,00	50800,84
895,00	50922,82
896,00	51050,31
897,00	51339,12
898,00	51459,18
899,00	51216,93
900,00	50443,61
901,00	49853,61
902,00	49795,36
903,00	49927,77
904,00	50572,08
905,00	50852,41
906,00	50903,60
907,00	50941,79
908,00	50212,13
909,00	50250,67
910,00	50527,47
911,00	50849,48
912,00	51122,73
913,00	51385,46
914,00	51281,11
915,00	51448,32
916,00	51120,82
917,00	50490,04
918,00	49801,50
919,00	49890,53
920,00	50278,84
921,00	50516,71
922,00	50687,88
923,00	50666,63
924,00	50279,42
925,00	50056,82
926,00	50599,99
927,00	50622,74
928,00	51140,71
929,00	51378,15
930,00	51773,63
931,00	51680,48
932,00	51847,60
933,00	51719,32
934,00	51083,76
935,00	50141,79
936,00	50121,24
937,00	50262,25
938,00	50140,94
939,00	50199,26
940,00	49950,89
941,00	49256,85
942,00	48950,25
943,00	49135,70
944,00	49698,34
945,00	49738,51
946,00	50465,50
947,00	50507,01
948,00	50826,85
949,00	50861,33
950,00	50999,70
951,00	50789,47
952,00	50411,12
953,00	49640,09
954,00	49611,03
955,00	49410,43
956,00	49414,31
957,00	48934,80
958,00	48310,57
959,00	48095,58
960,00	48251,65
961,00	48563,48
962,00	48996,77
963,00	49226,68
964,00	49655,69
965,00	49813,22
966,00	49896,56
967,00	50166,55
968,00	50379,24
969,00	50266,09
970,00	50043,03
971,00	49284,67
972,00	48834,60
973,00	48822,27
974,00	48401,28
975,00	48247,13
976,00	47416,08
977,00	47135,92
978,00	47400,49
979,00	47585,13
980,00	47809,17
981,00	48266,97
982,00	48509,25
983,00	48554,68
984,00	48962,79
985,00	49082,78
986,00	49246,73
987,00	49254,37
988,00	49428,68
989,00	49263,07
990,00	48403,88
991,00	48103,12
992,00	47824,07
993,00	47585,37
994,00	46630,35
995,00	46226,07
996,00	46095,82
997,00	46137,58
998,00	46692,37
999,00	46774,87
1000,00	46665,54
1001,00	47196,57
1002,00	47433,06
1003,00	47699,07
1004,00	47945,25
1005,00	48253,15
1006,00	48147,94
1007,00	48379,01
1008,00	48001,84
1009,00	48027,82
1010,00	47610,80
1011,00	47071,52
1012,00	46674,89
1013,00	46237,99
1014,00	45407,94
1015,00	45382,86
1016,00	45162,14
1017,00	45372,73
1018,00	45624,42
1019,00	45537,47
1020,00	45757,14
1021,00	46028,20
1022,00	46385,54
1023,00	46402,45
1024,00	46744,02
1025,00	46855,26
1026,00	47058,01
1027,00	47055,09
1028,00	46983,92
1029,00	47049,10
1030,00	46557,84
1031,00	46199,87
1032,00	45827,09
1033,00	45143,40
1034,00	44336,74
1035,00	43922,09
1036,00	43872,00
1037,00	44059,45
1038,00	44009,75
1039,00	44032,00
1040,00	44380,39
1041,00	44786,44
1042,00	44976,57
1043,00	45183,67
1044,00	45332,77
1045,00	45671,66
1046,00	45870,59
1047,00	45544,27
1048,00	45976,53
1049,00	46147,28
1050,00	45804,17
1051,00	45407,06
1052,00	45096,12
1053,00	44709,87
1054,00	43970,28
1055,00	43380,90
1056,00	43047,33
1057,00	42729,28
1058,00	42641,17
1059,00	42862,28
1060,00	43078,30
1061,00	42893,95
1062,00	43433,79
1063,00	43930,57
1064,00	44207,61
1065,00	44270,17
1066,00	44253,56
1067,00	44598,13
1068,00	44478,02
1069,00	44654,51
1070,00	44345,43
1071,00	44346,93
1072,00	44574,90
1073,00	43847,59
1074,00	43811,67
1075,00	42986,16
1076,00	42445,09
1077,00	42195,97
1078,00	41855,67
1079,00	41453,80
1080,00	41802,55
1081,00	42013,33
1082,00	42056,98
1083,00	42188,92
1084,00	42509,16
1085,00	42482,14
1086,00	42795,02
1087,00	42789,72
1088,00	42809,33
1089,00	43223,56
1090,00	43106,87
1091,00	43291,34
1092,00	43583,39
1093,00	43188,33
1094,00	43156,95
1095,00	42969,90
1096,00	42629,77
1097,00	41891,66
1098,00	41115,90
1099,00	40695,25
1100,00	40282,16
1101,00	40151,36
1102,00	40431,98
1103,00	40699,43
1104,00	40735,23
1105,00	40827,27
1106,00	41020,07
1107,00	41136,15
1108,00	41271,32
1109,00	41361,91
1110,00	41497,29
1111,00	41648,41
1112,00	41658,81
1113,00	41810,60
1114,00	41721,12
1115,00	41694,74
1116,00	41756,34
1117,00	41514,67
1118,00	41307,88
1119,00	40738,77
1120,00	40331,52
1121,00	39517,12
1122,00	39263,82
1123,00	38950,55
1124,00	39307,64
1125,00	39223,03
1126,00	39436,48
1127,00	39434,38
1128,00	39566,49
1129,00	39614,92
1130,00	39824,02
1131,00	39957,34
1132,00	40056,57
1133,00	39990,61
1134,00	39953,85
1135,00	40179,42
1136,00	39994,93
1137,00	40290,09
1138,00	39975,07
1139,00	40011,67
1140,00	39977,95
1141,00	39832,03
1142,00	39238,19
1143,00	38695,36
1144,00	37888,12
1145,00	37574,08
1146,00	37391,71
1147,00	37231,64
1148,00	37435,61
1149,00	37504,38
1150,00	37640,61
1151,00	37748,20
1152,00	37804,54
1153,00	37941,01
1154,00	37977,15
1155,00	38080,24
1156,00	38124,09
1157,00	38089,36
1158,00	38054,80
1159,00	38130,99
1160,00	38359,72
1161,00	38104,48
1162,00	38143,91
1163,00	38155,01
1164,00	37857,09
1165,00	37640,19
1166,00	37297,72
1167,00	36698,65
1168,00	36081,46
1169,00	35907,69
1170,00	35593,13
1171,00	35727,33
1172,00	35649,46
1173,00	35802,14
1174,00	35892,94
1175,00	35916,38
1176,00	35918,33
1177,00	35897,11
1178,00	36062,35
1179,00	36123,11
1180,00	36161,89
1181,00	36053,18
1182,00	36082,96
1183,00	36097,46
1184,00	36144,17
1185,00	36106,75
1186,00	36013,47
1187,00	35937,28
1188,00	35847,70
1189,00	35532,67
1190,00	35510,26
1191,00	34831,99
1192,00	34330,34
1193,00	33848,49
1194,00	33893,10
1195,00	33607,43
1196,00	33845,47
1197,00	33747,85
1198,00	33856,15
1199,00	33910,66
1200,00	33821,71
1201,00	33807,99
1202,00	33906,26
1203,00	33790,32
1204,00	34023,02
1205,00	33982,14
1206,00	33833,71
1207,00	33886,24
1208,00	33798,36
1209,00	33795,05
1210,00	33851,71
1211,00	33684,65
1212,00	33587,04
1213,00	33485,58
1214,00	33363,96
1215,00	33001,37
1216,00	32458,21
1217,00	32112,97
1218,00	31887,73
1219,00	31687,55
1220,00	31630,94
1221,00	31485,06
1222,00	31592,32
1223,00	31595,17
1224,00	31628,92
1225,00	31616,68
1226,00	31523,60
1227,00	31560,03
1228,00	31507,60
1229,00	31530,09
1230,00	31461,72
1231,00	31417,91
1232,00	31369,76
1233,00	31397,41
1234,00	31308,28
1235,00	31300,07
1236,00	31203,18
1237,00	31057,53
1238,00	30993,29
1239,00	30738,26
1240,00	30469,18
1241,00	30239,07
1242,00	29854,05
1243,00	29590,85
1244,00	29398,43
1245,00	29264,53
1246,00	29189,41
1247,00	29238,46
1248,00	29167,65
1249,00	29100,15
1250,00	29119,13
1251,00	29104,09
1252,00	29033,82
1253,00	29032,01
1254,00	28959,10
1255,00	29012,17
1256,00	28942,59
1257,00	28876,55
1258,00	28719,41
1259,00	28648,69
1260,00	28732,86
1261,00	28539,15
1262,00	28495,56
1263,00	28320,42
1264,00	28179,55
1265,00	28144,30
1266,00	27855,09
1267,00	27552,26
1268,00	27364,93
1269,00	27164,88
1270,00	26986,92
1271,00	26821,78
1272,00	26806,87
1273,00	26765,00
1274,00	26671,28
1275,00	26609,81
1276,00	26592,58
1277,00	26396,22
1278,00	26631,25
1279,00	26304,05
1280,00	26504,98
1281,00	26243,11
1282,00	26268,66
1283,00	26205,94
1284,00	26162,39
1285,00	25964,76
1286,00	26046,65
1287,00	25830,11
1288,00	25814,36
1289,00	25770,54
1290,00	25552,02
1291,00	25440,91
1292,00	25311,90
1293,00	25079,30
1294,00	24838,38
1295,00	24670,96
1296,00	24608,72
1297,00	24384,82
1298,00	24315,76
1299,00	24185,86
1300,00	24168,37
1301,00	24174,18
1302,00	24050,16
1303,00	24091,30
1304,00	24019,28
1305,00	23857,77
1306,00	23779,26
1307,00	23881,80
1308,00	23719,77
1309,00	23649,37
1310,00	23620,80
1311,00	23529,48
1312,00	23524,41
1313,00	23407,79
1314,00	23256,37
1315,00	23283,97
1316,00	23113,49
1317,00	23003,29
1318,00	22813,32
1319,00	22761,49
1320,00	22591,96
1321,00	22454,16
1322,00	22221,94
1323,00	22115,34
1324,00	22053,09
1325,00	21915,45
1326,00	21923,95
1327,00	21783,89
1328,00	21767,77
1329,00	21677,58
1330,00	21653,85
1331,00	21446,76
1332,00	21549,28
1333,00	21492,11
1334,00	21381,48
1335,00	21303,43
1336,00	21305,48
1337,00	21200,44
1338,00	21176,30
1339,00	21160,86
1340,00	21144,48
1341,00	20893,42
1342,00	20887,80
1343,00	20738,87
1344,00	20574,36
1345,00	20592,17
1346,00	20504,87
1347,00	20427,30
1348,00	20204,26
1349,00	20035,75
1350,00	19990,39
1351,00	19827,06
1352,00	19621,29
1353,00	19817,19
1354,00	19627,20
1355,00	19613,10
1356,00	19611,16
1357,00	19398,70
1358,00	19330,62
1359,00	19218,14
1360,00	19297,80
1361,00	19173,06
1362,00	19207,95
1363,00	19113,45
1364,00	19039,31
1365,00	19097,76
1366,00	18773,55
1367,00	18937,30
1368,00	18795,25
1369,00	18718,74
1370,00	18700,67
1371,00	18574,43
1372,00	18590,49
1373,00	18452,49
1374,00	18346,96
1375,00	18177,42
1376,00	18100,89
1377,00	18115,01
1378,00	17925,23
1379,00	17885,48
1380,00	17835,75
1381,00	17665,18
1382,00	17658,08
1383,00	17624,04
1384,00	17643,66
1385,00	17489,44
1386,00	17338,81
1387,00	17433,56
1388,00	17355,50
1389,00	17255,38
1390,00	17101,88
1391,00	17041,08
1392,00	17090,56
1393,00	17072,44
1394,00	16995,14
1395,00	16961,36
1396,00	16844,12
1397,00	16784,95
1398,00	16878,11
1399,00	16691,72
1400,00	16639,26
1401,00	16745,62
1402,00	16521,47
1403,00	16446,75
1404,00	16285,47
1405,00	16342,22
1406,00	16193,79
1407,00	16101,77
1408,00	16071,90
1409,00	15958,61
1410,00	15907,47
1411,00	15827,57
1412,00	15762,77
1413,00	15728,41
1414,00	15689,40
1415,00	15574,61
1416,00	15535,36
1417,00	15542,87
1418,00	15424,31
1419,00	15412,50
1420,00	15302,65
1421,00	15342,14
1422,00	15234,73
1423,00	15204,58
1424,00	15179,29
1425,00	15025,78
1426,00	15067,17
1427,00	14999,61
1428,00	14926,15
1429,00	14930,83
1430,00	14782,34
1431,00	14740,90
1432,00	14660,03
1433,00	14652,84
1434,00	14608,01
1435,00	14534,45
1436,00	14474,93
1437,00	14422,96
1438,00	14308,93
1439,00	14230,72
1440,00	14201,06
1441,00	14113,58
1442,00	14101,94
1443,00	14019,70
1444,00	13977,38
1445,00	13944,32
1446,00	13953,90
1447,00	13848,84
1448,00	13824,91
1449,00	13729,40
1450,00	13724,51
1451,00	13678,30
1452,00	13637,13
1453,00	13567,40
1454,00	13499,06
1455,00	13465,67
1456,00	13465,60
1457,00	13338,64
1458,00	13344,41
1459,00	13238,14
1460,00	13154,23
1461,00	13159,14
1462,00	13089,31
1463,00	12981,87
1464,00	13022,88
1465,00	12892,32
1466,00	12896,42
1467,00	12810,98
1468,00	12806,58
1469,00	12739,12
1470,00	12630,95
1471,00	12620,83
1472,00	12579,84
1473,00	12488,86
1474,00	12474,99
1475,00	12430,11
1476,00	12387,14
1477,00	12356,20
1478,00	12306,42
1479,00	12263,55
1480,00	12231,34
1481,00	12154,91
1482,00	12108,13
1483,00	12093,78
1484,00	12032,76
1485,00	12006,63
1486,00	11964,41
1487,00	11897,32
1488,00	11872,67
1489,00	11844,33
1490,00	11765,81
1491,00	11712,99
1492,00	11639,05
1493,00	11628,80
1494,00	11564,80
1495,00	11572,33
1496,00	11435,42
1497,00	11429,82
1498,00	11335,18
1499,00	11361,98
1500,00	11248,12
1501,00	11232,12
1502,00	11190,74
1503,00	11137,07
1504,00	11088,69
1505,00	11098,90
1506,00	11066,17
1507,00	10938,21
1508,00	10961,57
1509,00	10883,51
1510,00	10841,19
1511,00	10816,29
1512,00	10731,57
1513,00	10739,23
1514,00	10708,79
1515,00	10619,83
1516,00	10600,89
1517,00	10561,56
1518,00	10573,19
1519,00	10468,24
1520,00	10459,02
1521,00	10391,22
1522,00	10359,34
1523,00	10328,80
1524,00	10291,42
1525,00	10252,47
1526,00	10196,50
1527,00	10165,78
1528,00	10105,30
1529,00	10057,59
1530,00	10050,17
1531,00	9965,57
1532,00	9951,90
1533,00	9927,39
1534,00	9856,77
1535,00	9801,80
1536,00	9780,93
1537,00	9772,19
1538,00	9720,11
1539,00	9695,36
1540,00	9666,05
1541,00	9618,08
1542,00	9586,56
1543,00	9495,75
1544,00	9498,64
1545,00	9430,53
1546,00	9411,04
1547,00	9376,92
1548,00	9365,20
1549,00	9292,93
1550,00	9263,03
1551,00	9223,41
1552,00	9168,15
1553,00	9176,35
1554,00	9131,84
1555,00	9074,87
1556,00	9034,97
1557,00	9008,87
1558,00	8960,66
1559,00	8922,91
1560,00	8890,93
1561,00	8851,42
1562,00	8819,92
1563,00	8799,33
1564,00	8715,73
1565,00	8711,18
1566,00	8657,40
1567,00	8628,39
1568,00	8589,48
1569,00	8558,86
1570,00	8535,44
1571,00	8473,44
1572,00	8454,07
1573,00	8424,23
1574,00	8395,64
1575,00	8359,43
1576,00	8310,40
1577,00	8306,76
1578,00	8266,65
1579,00	8198,55
1580,00	8191,04
1581,00	8163,12
1582,00	8125,33
1583,00	8094,31
1584,00	8056,92
1585,00	8044,59
1586,00	8000,64
1587,00	7953,60
1588,00	7913,91
1589,00	7907,44
1590,00	7829,79
1591,00	7808,63
1592,00	7794,62
1593,00	7757,58
1594,00	7728,12
1595,00	7678,28
1596,00	7638,49
1597,00	7607,52
1598,00	7558,79
1599,00	7571,16
1600,00	7518,25
1601,00	7480,60
1602,00	7442,95
1603,00	7431,67
1604,00	7399,46
1605,00	7364,83
1606,00	7352,35
1607,00	7295,42
1608,00	7264,22
1609,00	7236,50
1610,00	7215,58
1611,00	7175,52
1612,00	7153,95
1613,00	7117,18
1614,00	7078,00
1615,00	7058,51
1616,00	7044,01
1617,00	6992,37
1618,00	6963,23
1619,00	6947,53
1620,00	6922,53
1621,00	6875,60
1622,00	6843,64
1623,00	6828,45
1624,00	6779,10
1625,00	6734,90
1626,00	6739,59
1627,00	6697,22
1628,00	6654,66
1629,00	6643,59
1630,00	6624,53
1631,00	6569,44
1632,00	6561,66
1633,00	6522,84
1634,00	6503,91
1635,00	6481,48
1636,00	6465,53
1637,00	6401,52
1638,00	6386,43
1639,00	6368,17
1640,00	6349,92
1641,00	6319,20
1642,00	6286,74
1643,00	6266,10
1644,00	6210,55
1645,00	6206,69
1646,00	6186,01
1647,00	6162,62
1648,00	6115,80
1649,00	6098,29
1650,00	6063,25
1651,00	6041,88
1652,00	6014,86
1653,00	5992,12
1654,00	5984,62
1655,00	5960,88
1656,00	5909,58
1657,00	5876,74
1658,00	5863,56
1659,00	5846,04
1660,00	5817,06
1661,00	5803,56
1662,00	5770,23
1663,00	5744,26
1664,00	5736,83
1665,00	5682,83
1666,00	5668,58
1667,00	5662,21
1668,00	5620,60
1669,00	5610,68
1670,00	5573,84
1671,00	5547,76
1672,00	5534,00
1673,00	5500,47
1674,00	5493,68
1675,00	5460,16
1676,00	5451,85
1677,00	5422,72
1678,00	5408,67
1679,00	5386,04
1680,00	5350,65
1681,00	5338,52
1682,00	5326,83
1683,00	5275,32
1684,00	5256,87
1685,00	5244,93
1686,00	5229,86
1687,00	5195,76
1688,00	5169,27
1689,00	5160,59
1690,00	5144,36
1691,00	5114,00
1692,00	5076,99
1693,00	5072,76
1694,00	5056,54
1695,00	5041,77
1696,00	5014,43
1697,00	4989,70
1698,00	4960,83
1699,00	4950,77
1700,00	4941,97
1701,00	4913,52
1702,00	4899,31
1703,00	4864,78
1704,00	4856,08
1705,00	4825,17
1706,00	4819,73
1707,00	4780,87
1708,00	4779,15
1709,00	4745,37
1710,00	4752,73
1711,00	4720,15
1712,00	4698,66
1713,00	4694,16
1714,00	4663,35
1715,00	4644,32
1716,00	4629,22
1717,00	4602,19
1718,00	4580,46
1719,00	4584,47
1720,00	4547,72
1721,00	4536,94
1722,00	4516,24
1723,00	4508,85
1724,00	4497,90
1725,00	4460,45
1726,00	4446,82
1727,00	4426,75
1728,00	4414,34
1729,00	4394,17
1730,00	4377,09
1731,00	4355,89
1732,00	4350,53
1733,00	4318,33
1734,00	4300,84
1735,00	4287,67
1736,00	4273,48
1737,00	4266,31
1738,00	4246,72
1739,00	4224,85
1740,00	4204,07
1741,00	4197,26
1742,00	4174,55
1743,00	4155,23
1744,00	4142,75
1745,00	4122,16
1746,00	4112,62
1747,00	4090,76
1748,00	4088,65
1749,00	4058,52
1750,00	4021,82
1751,00	4034,81
1752,00	4023,82
1753,00	4009,16
1754,00	4003,29
1755,00	3965,21
1756,00	3961,61
1757,00	3941,62
1758,00	3927,94
1759,00	3918,92
1760,00	3894,39
1761,00	3891,18
1762,00	3868,61
1763,00	3859,21
1764,00	3840,92
1765,00	3831,38
1766,00	3826,06
1767,00	3801,05
1768,00	3785,05
1769,00	3774,89
1770,00	3751,13
1771,00	3745,14
1772,00	3732,71
1773,00	3704,79
1774,00	3706,11
1775,00	3694,14
1776,00	3666,41
1777,00	3659,44
1778,00	3636,94
1779,00	3640,63
1780,00	3626,97
1781,00	3610,47
1782,00	3582,99
1783,00	3579,17
1784,00	3566,46
1785,00	3547,35
1786,00	3538,09
1787,00	3527,05
1788,00	3523,57
1789,00	3499,47
1790,00	3492,13
1791,00	3466,34
1792,00	3458,22
1793,00	3431,36
1794,00	3434,89
1795,00	3421,05
1796,00	3417,08
1797,00	3392,66
1798,00	3374,26
1799,00	3368,60
1800,00	3358,32
1801,00	3357,35
1802,00	3344,38
1803,00	3312,28
1804,00	3304,98
1805,00	3289,45
1806,00	3274,63
1807,00	3266,04
1808,00	3270,23
1809,00	3247,29
1810,00	3259,70
1811,00	3226,46
1812,00	3212,54
1813,00	3198,73
1814,00	3188,02
1815,00	3180,24
1816,00	3179,57
1817,00	3159,54
1818,00	3156,10
1819,00	3133,08
1820,00	3115,05
1821,00	3105,39
1822,00	3109,19
1823,00	3093,55
1824,00	3067,97
1825,00	3050,76
1826,00	3044,48
1827,00	3029,94
1828,00	3025,82
1829,00	3021,16
1830,00	2997,39
1831,00	2995,74
1832,00	2993,28
1833,00	2984,97
1834,00	2970,11
1835,00	2968,00
1836,00	2952,78
1837,00	2950,12
1838,00	2931,10
1839,00	2923,13
1840,00	2914,65
1841,00	2909,92
1842,00	2892,08
1843,00	2873,23
1844,00	2877,61
1845,00	2861,89
1846,00	2855,48
1847,00	2843,09
1848,00	2833,84
1849,00	2835,30
1850,00	2822,51
1851,00	2801,04
1852,00	2794,10
1853,00	2779,87
1854,00	2778,13
1855,00	2765,49
1856,00	2760,69
1857,00	2746,77
1858,00	2733,31
1859,00	2719,19
1860,00	2724,91
1861,00	2704,47
1862,00	2701,77
1863,00	2686,84
1864,00	2686,98
1865,00	2675,35
1866,00	2663,95
1867,00	2658,47
1868,00	2639,62
1869,00	2636,83
1870,00	2632,98
1871,00	2628,79
1872,00	2611,24
1873,00	2599,73
1874,00	2585,70
1875,00	2594,58
1876,00	2576,57
1877,00	2581,42
1878,00	2569,79
1879,00	2549,24
1880,00	2543,68
1881,00	2534,45
1882,00	2533,64
1883,00	2525,93
1884,00	2521,64
1885,00	2507,24
1886,00	2493,75
1887,00	2491,93
1888,00	2486,62
1889,00	2475,72
1890,00	2464,03
1891,00	2462,44
1892,00	2460,67
1893,00	2444,01
1894,00	2439,16
1895,00	2428,84
1896,00	2415,84
1897,00	2424,86
1898,00	2406,26
1899,00	2409,01
1900,00	2394,44
1901,00	2392,16
1902,00	2388,22
1903,00	2374,15
1904,00	2367,34
1905,00	2368,44
1906,00	2358,30
1907,00	2343,77
1908,00	2346,19
1909,00	2336,43
1910,00	2322,86
1911,00	2318,09
1912,00	2311,63
1913,00	2306,39
1914,00	2299,59
1915,00	2294,18
1916,00	2279,55
1917,00	2275,72
1918,00	2280,09
1919,00	2267,38
1920,00	2255,38
1921,00	2245,91
1922,00	2240,93
1923,00	2240,37
1924,00	2232,04
1925,00	2224,71
1926,00	2222,32
1927,00	2210,46
1928,00	2206,84
1929,00	2198,95
1930,00	2203,57
1931,00	2192,66
1932,00	2183,25
1933,00	2180,91
1934,00	2168,95
1935,00	2167,34
1936,00	2162,14
1937,00	2151,49
1938,00	2142,95
1939,00	2145,30
1940,00	2141,13
1941,00	2129,44
1942,00	2125,83
1943,00	2126,37
1944,00	2113,05
1945,00	2107,27
1946,00	2100,94
1947,00	2092,69
1948,00	2092,58
1949,00	2090,26
1950,00	2078,39
1951,00	2076,72
1952,00	2074,25
1953,00	2066,91
1954,00	2064,24
1955,00	2058,81
1956,00	2050,45
1957,00	2047,82
1958,00	2037,64
1959,00	2037,56
1960,00	2026,58
1961,00	2025,60
1962,00	2020,43
1963,00	2017,53
1964,00	2008,86
1965,00	2010,73
1966,00	1998,40
1967,00	1995,63
1968,00	1987,75
1969,00	1982,12
1970,00	1978,38
1971,00	1971,03
1972,00	1966,93
1973,00	1962,73
1974,00	1964,01
1975,00	1961,55
1976,00	1951,18
1977,00	1943,50
1978,00	1934,04
1979,00	1938,98
1980,00	1934,43
1981,00	1925,74
1982,00	1923,95
1983,00	1919,07
1984,00	1918,82
1985,00	1909,83
1986,00	1902,51
1987,00	1903,53
1988,00	1901,37
1989,00	1891,14
1990,00	1888,01
1991,00	1888,68
1992,00	1877,70
1993,00	1877,89
1994,00	1869,69
1995,00	1867,26
1996,00	1860,03
1997,00	1856,88
1998,00	1850,10
1999,00	1847,62
2000,00	1843,47
2001,00	1839,92
2002,00	1841,06
2003,00	1833,06
2004,00	1826,85
2005,00	1822,13
2006,00	1820,20
2007,00	1816,37
2008,00	1813,53
2009,00	1809,77
2010,00	1808,48
2011,00	1799,91
2012,00	1793,06
2013,00	1789,84
2014,00	1790,87
2015,00	1780,70
2016,00	1777,13
2017,00	1774,78
2018,00	1772,32
2019,00	1767,89
2020,00	1764,99
2021,00	1758,98
2022,00	1757,55
2023,00	1749,86
2024,00	1747,40
2025,00	1745,19
2026,00	1737,79
2027,00	1733,54
2028,00	1731,63
2029,00	1725,05
2030,00	1725,90
2031,00	1720,51
2032,00	1715,69
2033,00	1714,14
2034,00	1712,12
2035,00	1704,24
2036,00	1701,74
2037,00	1695,44
2038,00	1695,43
2039,00	1689,16
2040,00	1686,15
2041,00	1682,32
2042,00	1677,00
2043,00	1676,77
2044,00	1669,44
2045,00	1666,63
2046,00	1666,63
2047,00	1666,63
>>>>>End Processed Spectral Data<<<<<
