SpectraSuite Datei
++++++++++++++++++++++++++++++++++++
Datum: Wed Sep 18 18:01:54 CEST 2024
Benutzer: Student
Dark-Spektrum vorhanden: Nein
Referenz-Spektrum vorhanden: Nein
Zahl der probierten Teilspektren: 1
Spektrometer: USB2+H15728
Integrationszeit (usec): 5000 (USB2+H15728)
Spektren Durchschnitt berechnet: 100 (USB2+H15728)
Boxcar Glättung: 0 (USB2+H15728)
Dunkelstromkorrektur: Nein (USB2+H15728)
Puls/Lampe aktiviert: Nein (USB2+H15728)
Correct for Detector Non-linearity: Nein (USB2+H15728)
Streulichtkorrektur: Nein (USB2+H15728)
Anzahl Pixel in verarbeitetem Spektrum: 2048
>>>>>Begin Processed Spectral Data<<<<<
0,00	982,95
1,00	982,95
2,00	982,95
3,00	951,87
4,00	953,63
5,00	953,51
6,00	955,50
7,00	968,37
8,00	976,42
9,00	991,50
10,00	1006,80
11,00	1015,14
12,00	1029,81
13,00	1051,67
14,00	1066,61
15,00	1090,62
16,00	1101,20
17,00	1117,42
18,00	1133,38
19,00	1146,21
20,00	1159,74
21,00	1179,63
22,00	1197,68
23,00	1234,96
24,00	1307,05
25,00	1326,78
26,00	1337,59
27,00	1351,50
28,00	1363,90
29,00	1366,92
30,00	1383,37
31,00	1392,27
32,00	1402,73
33,00	1411,04
34,00	1414,53
35,00	1419,23
36,00	1429,39
37,00	1428,83
38,00	1435,54
39,00	1440,81
40,00	1446,52
41,00	1440,51
42,00	1450,31
43,00	1454,41
44,00	1452,56
45,00	1454,92
46,00	1458,29
47,00	1468,08
48,00	1465,34
49,00	1466,11
50,00	1468,76
51,00	1474,63
52,00	1483,17
53,00	1478,05
54,00	1484,48
55,00	1490,27
56,00	1492,30
57,00	1494,13
58,00	1498,83
59,00	1499,37
60,00	1513,95
61,00	1515,12
62,00	1519,01
63,00	1527,53
64,00	1529,19
65,00	1545,48
66,00	1555,22
67,00	1567,08
68,00	1577,99
69,00	1587,09
70,00	1591,21
71,00	1600,01
72,00	1612,07
73,00	1617,43
74,00	1632,48
75,00	1641,46
76,00	1654,95
77,00	1673,48
78,00	1686,33
79,00	1695,20
80,00	1715,19
81,00	1727,34
82,00	1742,06
83,00	1756,24
84,00	1786,02
85,00	1803,55
86,00	1816,16
87,00	1825,38
88,00	1842,47
89,00	1872,78
90,00	1880,74
91,00	1914,11
92,00	1932,58
93,00	1971,15
94,00	1990,74
95,00	2009,86
96,00	2023,67
97,00	2061,87
98,00	2083,76
99,00	2118,16
100,00	2146,41
101,00	2180,98
102,00	2210,75
103,00	2249,86
104,00	2282,33
105,00	2292,53
106,00	2343,79
107,00	2374,40
108,00	2413,30
109,00	2439,94
110,00	2495,17
111,00	2539,08
112,00	2567,80
113,00	2616,32
114,00	2654,87
115,00	2723,75
116,00	2739,64
117,00	2819,74
118,00	2886,68
119,00	2884,87
120,00	2959,33
121,00	3022,73
122,00	3052,13
123,00	3105,89
124,00	3180,51
125,00	3238,08
126,00	3314,27
127,00	3388,49
128,00	3415,26
129,00	3526,25
130,00	3558,39
131,00	3625,37
132,00	3708,11
133,00	3792,09
134,00	3835,39
135,00	3921,54
136,00	4034,15
137,00	4117,87
138,00	4175,05
139,00	4287,46
140,00	4361,35
141,00	4476,77
142,00	4499,61
143,00	4590,02
144,00	4688,84
145,00	4773,24
146,00	4948,62
147,00	5013,01
148,00	5051,18
149,00	5281,47
150,00	5347,56
151,00	5496,87
152,00	5503,98
153,00	5560,97
154,00	5790,65
155,00	5885,18
156,00	5891,22
157,00	6119,19
158,00	6196,57
159,00	6392,24
160,00	6479,73
161,00	6607,33
162,00	6657,19
163,00	6820,09
164,00	7041,43
165,00	7081,36
166,00	7256,39
167,00	7407,26
168,00	7527,94
169,00	7701,63
170,00	7831,57
171,00	7959,62
172,00	8087,51
173,00	8282,08
174,00	8491,44
175,00	8637,96
176,00	8865,67
177,00	8958,24
178,00	9112,36
179,00	9260,98
180,00	9390,32
181,00	9669,36
182,00	9863,63
183,00	9991,79
184,00	10162,86
185,00	10275,37
186,00	10597,66
187,00	10757,27
188,00	10968,64
189,00	11134,96
190,00	11427,45
191,00	11479,88
192,00	11830,99
193,00	12093,45
194,00	12252,21
195,00	12440,18
196,00	12762,01
197,00	12991,87
198,00	13210,15
199,00	13345,36
200,00	13654,83
201,00	14110,55
202,00	14214,68
203,00	14240,92
204,00	14746,33
205,00	15036,35
206,00	15178,33
207,00	15577,60
208,00	15819,47
209,00	16114,64
210,00	16509,06
211,00	16656,24
212,00	17025,48
213,00	17175,74
214,00	17544,96
215,00	17865,78
216,00	18133,16
217,00	18588,98
218,00	18712,02
219,00	19097,91
220,00	19519,11
221,00	19751,80
222,00	20050,53
223,00	20529,17
224,00	20897,29
225,00	21258,95
226,00	21648,76
227,00	21711,30
228,00	22439,21
229,00	22492,88
230,00	22872,74
231,00	23237,61
232,00	23770,95
233,00	24259,11
234,00	24348,27
235,00	24969,63
236,00	25299,83
237,00	25685,06
238,00	26204,12
239,00	26443,68
240,00	27130,32
241,00	27068,93
242,00	28026,25
243,00	28110,28
244,00	28762,89
245,00	29000,64
246,00	29547,53
247,00	30193,29
248,00	30157,24
249,00	31253,38
250,00	31131,40
251,00	31866,30
252,00	31971,79
253,00	32478,51
254,00	33739,59
255,00	33436,82
256,00	34733,08
257,00	34806,67
258,00	35574,22
259,00	35716,60
260,00	36589,41
261,00	36486,12
262,00	37097,56
263,00	38378,86
264,00	38366,39
265,00	38720,72
266,00	39613,50
267,00	39682,21
268,00	40807,12
269,00	41179,08
270,00	41123,98
271,00	42121,45
272,00	42604,84
273,00	43299,00
274,00	44009,84
275,00	44120,39
276,00	44523,12
277,00	45219,20
278,00	44997,90
279,00	46273,56
280,00	47361,44
281,00	47041,51
282,00	47877,53
283,00	48387,07
284,00	48749,97
285,00	49854,14
286,00	49498,63
287,00	50278,29
288,00	50727,11
289,00	50530,06
290,00	50873,95
291,00	51387,84
292,00	52236,52
293,00	51337,99
294,00	51724,29
295,00	51859,48
296,00	52476,64
297,00	51788,68
298,00	53225,70
299,00	52717,95
300,00	53595,58
301,00	53393,49
302,00	53539,05
303,00	54264,03
304,00	53228,53
305,00	53804,70
306,00	53944,55
307,00	53890,04
308,00	54092,47
309,00	53705,96
310,00	53266,43
311,00	53180,13
312,00	53682,93
313,00	53012,34
314,00	53020,44
315,00	53430,15
316,00	52930,47
317,00	52424,84
318,00	52549,38
319,00	51671,94
320,00	51837,41
321,00	51671,73
322,00	50808,09
323,00	50813,45
324,00	49929,62
325,00	49286,35
326,00	49244,87
327,00	48729,09
328,00	48640,64
329,00	48348,35
330,00	47477,02
331,00	46625,81
332,00	45925,52
333,00	45679,91
334,00	45167,42
335,00	44832,03
336,00	44117,83
337,00	43684,13
338,00	43482,89
339,00	42570,69
340,00	41890,16
341,00	41689,43
342,00	40755,02
343,00	40291,25
344,00	39529,00
345,00	39368,23
346,00	38386,42
347,00	38256,62
348,00	37424,21
349,00	37114,16
350,00	36440,90
351,00	36441,81
352,00	35654,60
353,00	35020,15
354,00	34695,28
355,00	34268,23
356,00	33957,69
357,00	33345,47
358,00	33149,45
359,00	32338,34
360,00	32219,11
361,00	31965,82
362,00	31674,84
363,00	30872,91
364,00	31028,81
365,00	30725,64
366,00	30207,89
367,00	29803,26
368,00	29969,72
369,00	29565,55
370,00	29069,90
371,00	29067,37
372,00	28575,58
373,00	28618,50
374,00	28250,92
375,00	27928,75
376,00	27808,91
377,00	27400,51
378,00	27331,54
379,00	26830,92
380,00	26715,37
381,00	26612,43
382,00	26269,80
383,00	26084,66
384,00	25536,60
385,00	25573,63
386,00	25397,13
387,00	25078,77
388,00	24798,84
389,00	24646,38
390,00	24435,97
391,00	24246,08
392,00	24105,74
393,00	23865,39
394,00	23443,41
395,00	23533,03
396,00	23395,06
397,00	23073,61
398,00	22737,88
399,00	22765,64
400,00	22528,36
401,00	22366,63
402,00	22207,80
403,00	22140,84
404,00	21939,57
405,00	21796,29
406,00	21639,14
407,00	21339,97
408,00	21230,18
409,00	20955,68
410,00	20921,70
411,00	20652,11
412,00	20591,71
413,00	20331,46
414,00	20159,64
415,00	20009,29
416,00	19957,05
417,00	19741,18
418,00	19553,12
419,00	19377,08
420,00	19181,95
421,00	18966,25
422,00	19013,46
423,00	18798,88
424,00	18540,09
425,00	18453,46
426,00	18360,03
427,00	18080,36
428,00	18014,07
429,00	17882,77
430,00	17685,37
431,00	17505,03
432,00	17234,04
433,00	17212,00
434,00	17037,98
435,00	16897,01
436,00	16731,72
437,00	16656,49
438,00	16443,27
439,00	16352,83
440,00	16229,11
441,00	16143,26
442,00	15963,20
443,00	15897,93
444,00	15676,58
445,00	15605,64
446,00	15516,75
447,00	15367,98
448,00	15273,26
449,00	15217,30
450,00	15099,92
451,00	14948,88
452,00	14910,08
453,00	14823,29
454,00	14681,34
455,00	14550,01
456,00	14496,15
457,00	14418,78
458,00	14345,75
459,00	14186,01
460,00	14236,19
461,00	14077,71
462,00	14185,80
463,00	14089,39
464,00	14082,56
465,00	14079,84
466,00	13969,00
467,00	13926,47
468,00	13891,20
469,00	13870,32
470,00	13844,22
471,00	13753,74
472,00	13742,41
473,00	13705,33
474,00	13678,44
475,00	13670,65
476,00	13695,11
477,00	13625,03
478,00	13590,74
479,00	13613,19
480,00	13617,14
481,00	13661,50
482,00	13561,51
483,00	13579,81
484,00	13561,46
485,00	13541,31
486,00	13565,91
487,00	13562,14
488,00	13539,39
489,00	13541,66
490,00	13487,22
491,00	13510,95
492,00	13473,79
493,00	13581,05
494,00	13564,22
495,00	13577,89
496,00	13560,24
497,00	13593,64
498,00	13643,71
499,00	13662,57
500,00	13615,67
501,00	13601,86
502,00	13704,35
503,00	13751,07
504,00	13786,60
505,00	13777,70
506,00	13755,05
507,00	13848,25
508,00	13832,94
509,00	13851,57
510,00	13834,04
511,00	13923,47
512,00	13969,09
513,00	13950,79
514,00	14037,06
515,00	14070,32
516,00	14146,41
517,00	14086,49
518,00	14248,39
519,00	14277,48
520,00	14279,00
521,00	14273,59
522,00	14465,33
523,00	14487,94
524,00	14511,39
525,00	14613,95
526,00	14771,99
527,00	14716,28
528,00	14701,02
529,00	14874,46
530,00	14965,36
531,00	15118,83
532,00	15225,84
533,00	15263,10
534,00	15318,17
535,00	15285,22
536,00	15484,59
537,00	15546,28
538,00	15642,01
539,00	15768,59
540,00	15881,42
541,00	16044,16
542,00	16149,95
543,00	16312,86
544,00	16429,93
545,00	16444,86
546,00	16575,56
547,00	16816,02
548,00	16853,40
549,00	17071,82
550,00	17158,21
551,00	17293,45
552,00	17401,91
553,00	17468,33
554,00	17718,42
555,00	18007,54
556,00	18104,35
557,00	18269,68
558,00	18297,63
559,00	18615,78
560,00	18907,90
561,00	19035,06
562,00	19197,71
563,00	19354,01
564,00	19440,56
565,00	19654,23
566,00	19871,59
567,00	20069,91
568,00	20298,62
569,00	20573,38
570,00	20599,85
571,00	20825,08
572,00	21137,52
573,00	21377,94
574,00	21688,74
575,00	21744,58
576,00	22029,78
577,00	22095,66
578,00	22449,20
579,00	22657,30
580,00	22918,22
581,00	23144,93
582,00	23233,26
583,00	23716,25
584,00	23903,07
585,00	24205,42
586,00	24471,47
587,00	24538,97
588,00	24866,46
589,00	25097,73
590,00	25549,10
591,00	25534,61
592,00	25915,25
593,00	26132,95
594,00	26363,40
595,00	26782,63
596,00	26890,53
597,00	27333,01
598,00	27583,47
599,00	27864,22
600,00	27962,71
601,00	28203,57
602,00	28529,96
603,00	28895,83
604,00	29180,75
605,00	29499,18
606,00	29822,90
607,00	29947,39
608,00	30425,86
609,00	30640,51
610,00	30836,91
611,00	31283,27
612,00	31569,94
613,00	31646,76
614,00	32063,75
615,00	32605,63
616,00	32702,71
617,00	33038,67
618,00	33270,95
619,00	33714,97
620,00	33766,96
621,00	34008,94
622,00	34731,44
623,00	34719,32
624,00	35218,98
625,00	35402,85
626,00	35666,82
627,00	36140,96
628,00	36325,00
629,00	36752,73
630,00	36766,40
631,00	37400,26
632,00	37471,09
633,00	37867,53
634,00	38214,86
635,00	38384,04
636,00	38768,10
637,00	39087,23
638,00	39381,62
639,00	39699,30
640,00	40142,88
641,00	40322,37
642,00	40515,75
643,00	40904,70
644,00	41239,84
645,00	41462,59
646,00	41801,52
647,00	42075,86
648,00	42396,82
649,00	42769,64
650,00	42971,00
651,00	43377,90
652,00	43593,95
653,00	43907,09
654,00	44012,79
655,00	44402,35
656,00	44785,50
657,00	44892,01
658,00	45181,07
659,00	45443,51
660,00	45791,04
661,00	45908,34
662,00	46410,67
663,00	46425,91
664,00	46941,08
665,00	47050,60
666,00	47269,44
667,00	47530,57
668,00	47919,00
669,00	47977,85
670,00	48177,26
671,00	48620,98
672,00	48679,61
673,00	48710,64
674,00	49141,21
675,00	49285,64
676,00	49563,21
677,00	49929,43
678,00	49907,73
679,00	50395,64
680,00	50619,56
681,00	50945,76
682,00	50931,72
683,00	51243,83
684,00	51435,99
685,00	51669,32
686,00	51815,81
687,00	51951,86
688,00	51946,08
689,00	52277,78
690,00	52642,30
691,00	52451,50
692,00	52803,84
693,00	52827,83
694,00	53011,07
695,00	53240,05
696,00	53290,51
697,00	53623,99
698,00	53801,50
699,00	53743,29
700,00	53913,42
701,00	54158,50
702,00	54295,33
703,00	54486,41
704,00	54586,02
705,00	54569,36
706,00	54822,11
707,00	54850,99
708,00	54993,81
709,00	55221,03
710,00	55174,97
711,00	55383,89
712,00	55421,38
713,00	55444,01
714,00	55731,69
715,00	55813,33
716,00	55827,28
717,00	55970,96
718,00	56052,81
719,00	56156,59
720,00	56154,37
721,00	56338,05
722,00	56495,55
723,00	56413,30
724,00	56647,47
725,00	56608,22
726,00	56809,83
727,00	56919,37
728,00	56786,31
729,00	57252,64
730,00	56766,51
731,00	57053,46
732,00	57205,01
733,00	57257,84
734,00	57072,44
735,00	57568,52
736,00	57504,93
737,00	57443,63
738,00	57539,36
739,00	57393,87
740,00	57679,97
741,00	57737,18
742,00	57731,86
743,00	57701,30
744,00	57948,93
745,00	57869,00
746,00	57964,40
747,00	58061,93
748,00	58079,43
749,00	58170,41
750,00	58168,66
751,00	58067,03
752,00	58093,76
753,00	58179,91
754,00	58566,59
755,00	58498,51
756,00	58184,01
757,00	58577,50
758,00	58597,63
759,00	58852,44
760,00	58564,32
761,00	58686,43
762,00	58812,63
763,00	58712,03
764,00	58799,15
765,00	58873,55
766,00	58823,54
767,00	58818,53
768,00	58873,34
769,00	58915,50
770,00	59042,78
771,00	58842,24
772,00	59040,53
773,00	59497,56
774,00	59207,24
775,00	59026,70
776,00	59107,35
777,00	59382,41
778,00	59194,82
779,00	59281,63
780,00	59141,73
781,00	59494,03
782,00	59376,61
783,00	59308,92
784,00	59535,60
785,00	59229,39
786,00	59452,28
787,00	59544,49
788,00	59632,80
789,00	59897,56
790,00	59566,70
791,00	59698,17
792,00	59737,66
793,00	59811,57
794,00	59742,36
795,00	59996,10
796,00	59852,20
797,00	60079,61
798,00	59891,76
799,00	60068,91
800,00	59755,35
801,00	60136,46
802,00	60034,11
803,00	60192,70
804,00	60173,18
805,00	60099,97
806,00	60082,09
807,00	60268,28
808,00	60278,48
809,00	60244,71
810,00	60413,88
811,00	60196,87
812,00	60327,64
813,00	60291,24
814,00	60280,08
815,00	60281,04
816,00	60228,98
817,00	60216,58
818,00	60363,94
819,00	60183,62
820,00	60240,01
821,00	60345,89
822,00	60073,95
823,00	60498,78
824,00	60526,30
825,00	60469,45
826,00	60509,33
827,00	60438,67
828,00	60453,18
829,00	60466,34
830,00	60642,51
831,00	60497,42
832,00	60592,14
833,00	60611,14
834,00	60621,54
835,00	60514,25
836,00	60717,36
837,00	60584,21
838,00	60725,85
839,00	60673,26
840,00	60760,96
841,00	60629,24
842,00	60713,15
843,00	60832,70
844,00	60661,54
845,00	60851,07
846,00	60805,10
847,00	60956,70
848,00	60850,23
849,00	60950,05
850,00	60800,35
851,00	60869,00
852,00	60917,33
853,00	60905,68
854,00	60987,18
855,00	60922,27
856,00	60951,81
857,00	60959,79
858,00	60939,17
859,00	61054,65
860,00	61058,96
861,00	60988,51
862,00	60937,91
863,00	61000,70
864,00	60946,05
865,00	60969,34
866,00	61114,50
867,00	61117,64
868,00	60965,62
869,00	61070,45
870,00	60979,57
871,00	61108,06
872,00	60922,76
873,00	61101,51
874,00	60951,62
875,00	61086,51
876,00	61055,61
877,00	61018,44
878,00	60944,74
879,00	60935,82
880,00	61051,42
881,00	60886,02
882,00	61010,53
883,00	60993,52
884,00	60951,06
885,00	60940,76
886,00	61003,56
887,00	61156,02
888,00	60925,99
889,00	60968,36
890,00	60961,48
891,00	61057,44
892,00	60964,94
893,00	60825,26
894,00	60987,29
895,00	60893,04
896,00	60809,76
897,00	60898,68
898,00	60958,81
899,00	60930,00
900,00	60798,27
901,00	60910,24
902,00	60797,33
903,00	60703,29
904,00	60894,00
905,00	60867,27
906,00	60750,87
907,00	60838,01
908,00	60666,22
909,00	60820,76
910,00	60736,74
911,00	60700,74
912,00	60697,72
913,00	60706,71
914,00	60552,96
915,00	60650,54
916,00	60583,67
917,00	60628,32
918,00	60528,59
919,00	60454,84
920,00	60522,02
921,00	60487,92
922,00	60461,07
923,00	60431,20
924,00	60359,02
925,00	60284,48
926,00	60430,13
927,00	60205,25
928,00	60323,24
929,00	60210,59
930,00	60270,78
931,00	60050,19
932,00	60141,59
933,00	60145,73
934,00	60061,05
935,00	59935,60
936,00	60033,41
937,00	60012,23
938,00	59878,00
939,00	59869,80
940,00	59878,11
941,00	59862,92
942,00	59747,65
943,00	59678,58
944,00	59805,95
945,00	59510,86
946,00	59751,11
947,00	59508,10
948,00	59543,09
949,00	59461,22
950,00	59459,60
951,00	59335,04
952,00	59314,51
953,00	59272,24
954,00	59329,56
955,00	59152,80
956,00	59163,55
957,00	59000,48
958,00	59041,02
959,00	59028,69
960,00	58888,30
961,00	58832,29
962,00	58847,32
963,00	58723,90
964,00	58791,17
965,00	58663,89
966,00	58509,09
967,00	58484,70
968,00	58553,11
969,00	58457,76
970,00	58465,67
971,00	58279,11
972,00	58291,88
973,00	58314,87
974,00	58085,50
975,00	58168,28
976,00	58048,47
977,00	57974,70
978,00	57951,62
979,00	57832,25
980,00	57727,82
981,00	57779,99
982,00	57757,91
983,00	57557,52
984,00	57664,06
985,00	57512,91
986,00	57476,18
987,00	57340,36
988,00	57456,59
989,00	57429,87
990,00	57086,51
991,00	57246,81
992,00	57132,83
993,00	57129,53
994,00	56698,24
995,00	56908,09
996,00	56747,88
997,00	56514,86
998,00	56692,71
999,00	56501,23
1000,00	56179,53
1001,00	56420,30
1002,00	56323,33
1003,00	56319,80
1004,00	56283,87
1005,00	56350,53
1006,00	56054,59
1007,00	56211,64
1008,00	55787,02
1009,00	55998,35
1010,00	55892,53
1011,00	55770,78
1012,00	55675,98
1013,00	55701,85
1014,00	55561,77
1015,00	55606,00
1016,00	55253,78
1017,00	55247,27
1018,00	55306,32
1019,00	55153,88
1020,00	55065,08
1021,00	55022,65
1022,00	55102,72
1023,00	54734,53
1024,00	54844,09
1025,00	54696,75
1026,00	54700,59
1027,00	54544,24
1028,00	54379,07
1029,00	54462,60
1030,00	54177,53
1031,00	54227,78
1032,00	54273,44
1033,00	54087,46
1034,00	53945,56
1035,00	53650,72
1036,00	53468,37
1037,00	53541,09
1038,00	53541,46
1039,00	53353,80
1040,00	53440,91
1041,00	53549,89
1042,00	53419,05
1043,00	53325,78
1044,00	53185,87
1045,00	53258,68
1046,00	53201,29
1047,00	52656,23
1048,00	52888,71
1049,00	52993,80
1050,00	52712,49
1051,00	52467,18
1052,00	52490,40
1053,00	52580,23
1054,00	52471,91
1055,00	52399,80
1056,00	52130,78
1057,00	51940,79
1058,00	51955,63
1059,00	52019,18
1060,00	51937,77
1061,00	51374,31
1062,00	51618,74
1063,00	51798,51
1064,00	51781,10
1065,00	51564,81
1066,00	51296,54
1067,00	51391,92
1068,00	51133,26
1069,00	51216,23
1070,00	50765,85
1071,00	50668,97
1072,00	50921,58
1073,00	50265,58
1074,00	50641,09
1075,00	50380,97
1076,00	50281,61
1077,00	50375,56
1078,00	50361,52
1079,00	50010,53
1080,00	50294,86
1081,00	50214,56
1082,00	49934,81
1083,00	49866,78
1084,00	49908,53
1085,00	49599,91
1086,00	49669,89
1087,00	49468,72
1088,00	49312,72
1089,00	49491,66
1090,00	49197,99
1091,00	49278,90
1092,00	49420,46
1093,00	48942,36
1094,00	48936,41
1095,00	48890,87
1096,00	48850,16
1097,00	48703,65
1098,00	48608,74
1099,00	48613,37
1100,00	48348,87
1101,00	48151,54
1102,00	48232,43
1103,00	48265,12
1104,00	47974,48
1105,00	47832,05
1106,00	47766,03
1107,00	47702,74
1108,00	47714,86
1109,00	47586,91
1110,00	47489,00
1111,00	47496,98
1112,00	47266,77
1113,00	47272,27
1114,00	46979,68
1115,00	46859,94
1116,00	46898,44
1117,00	46750,00
1118,00	46700,50
1119,00	46422,02
1120,00	46679,71
1121,00	46387,31
1122,00	46450,69
1123,00	46104,90
1124,00	46470,45
1125,00	46098,56
1126,00	46043,39
1127,00	45810,70
1128,00	45764,10
1129,00	45548,07
1130,00	45564,71
1131,00	45524,61
1132,00	45453,39
1133,00	45217,02
1134,00	44953,90
1135,00	45079,23
1136,00	44798,04
1137,00	45086,39
1138,00	44615,27
1139,00	44682,75
1140,00	44648,88
1141,00	44680,15
1142,00	44300,09
1143,00	44247,15
1144,00	44032,92
1145,00	44143,00
1146,00	43935,67
1147,00	43730,22
1148,00	43733,52
1149,00	43629,08
1150,00	43547,82
1151,00	43487,04
1152,00	43337,48
1153,00	43341,55
1154,00	43165,82
1155,00	43191,15
1156,00	43004,49
1157,00	42833,30
1158,00	42639,36
1159,00	42615,61
1160,00	42732,64
1161,00	42316,14
1162,00	42262,35
1163,00	42267,83
1164,00	42056,15
1165,00	41974,84
1166,00	41932,45
1167,00	41752,37
1168,00	41700,62
1169,00	41759,63
1170,00	41423,32
1171,00	41460,65
1172,00	41247,71
1173,00	41259,17
1174,00	41148,70
1175,00	40946,85
1176,00	40826,25
1177,00	40643,15
1178,00	40623,86
1179,00	40621,68
1180,00	40493,73
1181,00	40234,16
1182,00	40156,08
1183,00	40059,67
1184,00	40027,16
1185,00	39903,47
1186,00	39765,82
1187,00	39615,70
1188,00	39640,30
1189,00	39327,13
1190,00	39576,14
1191,00	39159,81
1192,00	39114,31
1193,00	38864,97
1194,00	39019,23
1195,00	38607,11
1196,00	38761,52
1197,00	38570,37
1198,00	38527,82
1199,00	38415,28
1200,00	38159,28
1201,00	38076,72
1202,00	38032,11
1203,00	37734,35
1204,00	37913,99
1205,00	37737,14
1206,00	37495,85
1207,00	37444,55
1208,00	37295,87
1209,00	37164,31
1210,00	37227,34
1211,00	36954,69
1212,00	36864,40
1213,00	36772,72
1214,00	36789,85
1215,00	36615,20
1216,00	36347,40
1217,00	36334,31
1218,00	36213,73
1219,00	36117,32
1220,00	35984,43
1221,00	35724,98
1222,00	35753,93
1223,00	35607,15
1224,00	35498,06
1225,00	35454,04
1226,00	35231,17
1227,00	35160,58
1228,00	34981,37
1229,00	34908,86
1230,00	34727,89
1231,00	34620,08
1232,00	34513,49
1233,00	34449,71
1234,00	34276,35
1235,00	34221,07
1236,00	34085,48
1237,00	33895,83
1238,00	33870,17
1239,00	33699,90
1240,00	33548,79
1241,00	33519,42
1242,00	33307,95
1243,00	33212,69
1244,00	33099,95
1245,00	32934,82
1246,00	32793,85
1247,00	32796,27
1248,00	32639,40
1249,00	32450,83
1250,00	32412,60
1251,00	32292,44
1252,00	32122,94
1253,00	32059,86
1254,00	31896,33
1255,00	31866,74
1256,00	31719,76
1257,00	31605,63
1258,00	31380,45
1259,00	31243,72
1260,00	31305,74
1261,00	31064,78
1262,00	30980,27
1263,00	30802,97
1264,00	30663,85
1265,00	30679,70
1266,00	30534,07
1267,00	30362,53
1268,00	30288,52
1269,00	30203,93
1270,00	30076,70
1271,00	29869,07
1272,00	29881,10
1273,00	29700,20
1274,00	29559,87
1275,00	29430,08
1276,00	29333,30
1277,00	29087,59
1278,00	29247,26
1279,00	28816,70
1280,00	28997,39
1281,00	28659,09
1282,00	28647,03
1283,00	28519,36
1284,00	28456,30
1285,00	28160,44
1286,00	28290,90
1287,00	27977,90
1288,00	27919,15
1289,00	27896,75
1290,00	27680,09
1291,00	27576,31
1292,00	27541,90
1293,00	27373,85
1294,00	27248,05
1295,00	27138,16
1296,00	27116,44
1297,00	26920,28
1298,00	26818,37
1299,00	26681,73
1300,00	26601,22
1301,00	26593,10
1302,00	26396,70
1303,00	26365,64
1304,00	26238,76
1305,00	26003,21
1306,00	25921,76
1307,00	25967,19
1308,00	25737,75
1309,00	25647,87
1310,00	25543,48
1311,00	25428,54
1312,00	25381,57
1313,00	25252,93
1314,00	25086,00
1315,00	25090,10
1316,00	24907,68
1317,00	24787,44
1318,00	24638,14
1319,00	24650,12
1320,00	24512,69
1321,00	24429,60
1322,00	24287,76
1323,00	24214,36
1324,00	24136,77
1325,00	23983,28
1326,00	23982,21
1327,00	23823,03
1328,00	23772,89
1329,00	23634,73
1330,00	23578,88
1331,00	23275,50
1332,00	23355,15
1333,00	23278,66
1334,00	23113,91
1335,00	22972,94
1336,00	22945,54
1337,00	22836,26
1338,00	22740,86
1339,00	22728,36
1340,00	22733,72
1341,00	22421,44
1342,00	22413,32
1343,00	22255,38
1344,00	22088,34
1345,00	22136,86
1346,00	22074,04
1347,00	22030,18
1348,00	21834,90
1349,00	21660,53
1350,00	21675,05
1351,00	21499,06
1352,00	21291,01
1353,00	21496,18
1354,00	21295,41
1355,00	21268,47
1356,00	21214,10
1357,00	20980,12
1358,00	20877,39
1359,00	20759,12
1360,00	20805,47
1361,00	20645,07
1362,00	20677,23
1363,00	20558,17
1364,00	20446,76
1365,00	20464,97
1366,00	20107,85
1367,00	20273,98
1368,00	20125,99
1369,00	20027,40
1370,00	19949,84
1371,00	19841,91
1372,00	19872,27
1373,00	19762,99
1374,00	19623,31
1375,00	19467,12
1376,00	19414,77
1377,00	19465,98
1378,00	19313,89
1379,00	19254,63
1380,00	19195,01
1381,00	19035,81
1382,00	19044,78
1383,00	18970,30
1384,00	18973,13
1385,00	18840,00
1386,00	18641,62
1387,00	18705,68
1388,00	18598,62
1389,00	18481,29
1390,00	18293,28
1391,00	18201,88
1392,00	18249,41
1393,00	18223,11
1394,00	18136,76
1395,00	18085,79
1396,00	17980,23
1397,00	17881,51
1398,00	17952,54
1399,00	17775,03
1400,00	17727,15
1401,00	17852,32
1402,00	17608,79
1403,00	17564,90
1404,00	17381,78
1405,00	17482,77
1406,00	17310,25
1407,00	17256,04
1408,00	17233,34
1409,00	17090,69
1410,00	17017,19
1411,00	16953,34
1412,00	16913,81
1413,00	16838,82
1414,00	16772,70
1415,00	16646,33
1416,00	16583,51
1417,00	16596,50
1418,00	16438,19
1419,00	16453,64
1420,00	16296,12
1421,00	16335,51
1422,00	16171,25
1423,00	16162,57
1424,00	16134,06
1425,00	15946,05
1426,00	16007,49
1427,00	15892,10
1428,00	15847,81
1429,00	15862,79
1430,00	15687,74
1431,00	15654,60
1432,00	15574,79
1433,00	15579,80
1434,00	15549,58
1435,00	15466,73
1436,00	15397,96
1437,00	15374,65
1438,00	15256,88
1439,00	15172,94
1440,00	15119,86
1441,00	15011,54
1442,00	15000,98
1443,00	14917,52
1444,00	14871,04
1445,00	14819,27
1446,00	14832,68
1447,00	14693,77
1448,00	14639,18
1449,00	14545,87
1450,00	14575,24
1451,00	14504,37
1452,00	14449,41
1453,00	14372,25
1454,00	14286,07
1455,00	14253,28
1456,00	14261,35
1457,00	14125,11
1458,00	14111,46
1459,00	13997,18
1460,00	13919,24
1461,00	13913,78
1462,00	13858,85
1463,00	13754,42
1464,00	13798,42
1465,00	13662,25
1466,00	13660,16
1467,00	13567,90
1468,00	13574,59
1469,00	13538,52
1470,00	13406,35
1471,00	13405,89
1472,00	13350,65
1473,00	13259,06
1474,00	13202,73
1475,00	13164,34
1476,00	13111,94
1477,00	13084,69
1478,00	13006,38
1479,00	12976,56
1480,00	12930,31
1481,00	12866,49
1482,00	12789,16
1483,00	12778,58
1484,00	12728,61
1485,00	12711,05
1486,00	12631,75
1487,00	12554,14
1488,00	12528,26
1489,00	12519,83
1490,00	12419,12
1491,00	12351,73
1492,00	12280,74
1493,00	12279,41
1494,00	12220,94
1495,00	12229,67
1496,00	12073,40
1497,00	12098,65
1498,00	12011,04
1499,00	12001,49
1500,00	11888,70
1501,00	11873,98
1502,00	11823,22
1503,00	11782,42
1504,00	11741,74
1505,00	11729,90
1506,00	11701,98
1507,00	11541,91
1508,00	11582,42
1509,00	11475,60
1510,00	11443,14
1511,00	11419,03
1512,00	11311,55
1513,00	11323,44
1514,00	11270,01
1515,00	11199,63
1516,00	11173,79
1517,00	11118,74
1518,00	11152,49
1519,00	11022,92
1520,00	11025,73
1521,00	10939,55
1522,00	10923,00
1523,00	10864,16
1524,00	10834,85
1525,00	10796,75
1526,00	10735,19
1527,00	10721,48
1528,00	10649,81
1529,00	10582,40
1530,00	10582,01
1531,00	10501,42
1532,00	10506,66
1533,00	10466,78
1534,00	10396,26
1535,00	10322,23
1536,00	10296,02
1537,00	10301,40
1538,00	10234,98
1539,00	10221,21
1540,00	10165,04
1541,00	10136,56
1542,00	10070,39
1543,00	10014,73
1544,00	9983,04
1545,00	9902,27
1546,00	9899,58
1547,00	9845,18
1548,00	9852,37
1549,00	9757,60
1550,00	9718,21
1551,00	9697,96
1552,00	9637,74
1553,00	9661,22
1554,00	9599,01
1555,00	9535,62
1556,00	9510,39
1557,00	9458,48
1558,00	9428,87
1559,00	9362,05
1560,00	9340,73
1561,00	9289,45
1562,00	9266,79
1563,00	9266,23
1564,00	9150,30
1565,00	9160,20
1566,00	9118,24
1567,00	9066,93
1568,00	9026,81
1569,00	8991,68
1570,00	8958,68
1571,00	8900,03
1572,00	8884,72
1573,00	8842,19
1574,00	8809,47
1575,00	8796,55
1576,00	8728,58
1577,00	8728,61
1578,00	8676,65
1579,00	8575,04
1580,00	8590,05
1581,00	8555,08
1582,00	8535,72
1583,00	8483,01
1584,00	8444,30
1585,00	8434,57
1586,00	8387,66
1587,00	8337,50
1588,00	8303,05
1589,00	8308,88
1590,00	8207,72
1591,00	8191,34
1592,00	8193,96
1593,00	8142,19
1594,00	8112,30
1595,00	8043,44
1596,00	8004,61
1597,00	7977,18
1598,00	7919,30
1599,00	7930,69
1600,00	7891,56
1601,00	7849,85
1602,00	7813,69
1603,00	7783,31
1604,00	7763,51
1605,00	7716,07
1606,00	7706,33
1607,00	7657,67
1608,00	7611,23
1609,00	7569,53
1610,00	7549,12
1611,00	7514,95
1612,00	7499,87
1613,00	7449,85
1614,00	7410,74
1615,00	7389,31
1616,00	7366,23
1617,00	7304,30
1618,00	7274,31
1619,00	7263,69
1620,00	7243,21
1621,00	7202,02
1622,00	7164,05
1623,00	7151,34
1624,00	7106,10
1625,00	7050,28
1626,00	7051,78
1627,00	7003,82
1628,00	6964,57
1629,00	6940,46
1630,00	6933,09
1631,00	6873,33
1632,00	6855,48
1633,00	6819,92
1634,00	6811,94
1635,00	6771,73
1636,00	6753,48
1637,00	6674,08
1638,00	6681,76
1639,00	6654,14
1640,00	6636,64
1641,00	6593,06
1642,00	6569,72
1643,00	6544,09
1644,00	6484,81
1645,00	6481,69
1646,00	6457,51
1647,00	6433,06
1648,00	6382,24
1649,00	6356,03
1650,00	6324,17
1651,00	6299,88
1652,00	6261,45
1653,00	6240,83
1654,00	6239,49
1655,00	6225,31
1656,00	6174,31
1657,00	6133,44
1658,00	6106,79
1659,00	6086,07
1660,00	6072,29
1661,00	6041,46
1662,00	6012,32
1663,00	5990,86
1664,00	5976,49
1665,00	5937,87
1666,00	5911,98
1667,00	5898,41
1668,00	5858,31
1669,00	5849,30
1670,00	5808,81
1671,00	5784,91
1672,00	5768,74
1673,00	5723,92
1674,00	5717,69
1675,00	5674,68
1676,00	5683,94
1677,00	5656,98
1678,00	5619,84
1679,00	5602,54
1680,00	5572,21
1681,00	5558,51
1682,00	5535,55
1683,00	5476,46
1684,00	5475,10
1685,00	5447,83
1686,00	5436,06
1687,00	5410,05
1688,00	5370,22
1689,00	5351,10
1690,00	5350,70
1691,00	5307,80
1692,00	5283,03
1693,00	5265,92
1694,00	5242,31
1695,00	5231,52
1696,00	5200,37
1697,00	5190,16
1698,00	5160,27
1699,00	5149,55
1700,00	5130,31
1701,00	5117,67
1702,00	5094,18
1703,00	5055,02
1704,00	5051,20
1705,00	5011,11
1706,00	5009,07
1707,00	4962,57
1708,00	4955,17
1709,00	4930,74
1710,00	4928,54
1711,00	4898,83
1712,00	4880,91
1713,00	4872,78
1714,00	4840,13
1715,00	4819,28
1716,00	4803,95
1717,00	4772,66
1718,00	4762,15
1719,00	4760,88
1720,00	4720,46
1721,00	4706,68
1722,00	4687,48
1723,00	4660,15
1724,00	4668,55
1725,00	4636,34
1726,00	4616,40
1727,00	4586,79
1728,00	4569,08
1729,00	4564,23
1730,00	4536,29
1731,00	4509,84
1732,00	4495,54
1733,00	4467,47
1734,00	4467,71
1735,00	4444,16
1736,00	4427,08
1737,00	4424,53
1738,00	4407,25
1739,00	4385,51
1740,00	4347,24
1741,00	4345,46
1742,00	4328,63
1743,00	4304,71
1744,00	4288,45
1745,00	4273,51
1746,00	4268,20
1747,00	4247,39
1748,00	4231,50
1749,00	4194,05
1750,00	4152,30
1751,00	4175,52
1752,00	4161,75
1753,00	4140,13
1754,00	4129,71
1755,00	4102,54
1756,00	4099,35
1757,00	4081,31
1758,00	4065,98
1759,00	4059,45
1760,00	4033,54
1761,00	4035,20
1762,00	4006,20
1763,00	3989,65
1764,00	3970,34
1765,00	3965,48
1766,00	3953,73
1767,00	3930,34
1768,00	3916,16
1769,00	3900,22
1770,00	3871,60
1771,00	3888,10
1772,00	3856,73
1773,00	3839,58
1774,00	3836,21
1775,00	3834,59
1776,00	3800,59
1777,00	3784,46
1778,00	3770,37
1779,00	3788,18
1780,00	3741,37
1781,00	3737,51
1782,00	3712,93
1783,00	3700,04
1784,00	3693,15
1785,00	3671,88
1786,00	3665,82
1787,00	3646,41
1788,00	3655,12
1789,00	3632,82
1790,00	3620,34
1791,00	3585,42
1792,00	3585,00
1793,00	3556,44
1794,00	3557,80
1795,00	3549,14
1796,00	3536,13
1797,00	3521,38
1798,00	3490,37
1799,00	3489,13
1800,00	3481,03
1801,00	3478,88
1802,00	3455,57
1803,00	3437,05
1804,00	3428,60
1805,00	3412,27
1806,00	3393,40
1807,00	3404,38
1808,00	3393,54
1809,00	3366,21
1810,00	3382,66
1811,00	3353,03
1812,00	3330,47
1813,00	3329,55
1814,00	3319,84
1815,00	3296,29
1816,00	3300,90
1817,00	3279,58
1818,00	3279,02
1819,00	3264,11
1820,00	3233,26
1821,00	3221,51
1822,00	3228,11
1823,00	3207,40
1824,00	3196,35
1825,00	3175,90
1826,00	3165,36
1827,00	3147,46
1828,00	3140,95
1829,00	3143,85
1830,00	3125,08
1831,00	3123,30
1832,00	3116,68
1833,00	3110,13
1834,00	3101,14
1835,00	3091,50
1836,00	3074,79
1837,00	3066,29
1838,00	3047,35
1839,00	3055,12
1840,00	3048,43
1841,00	3022,54
1842,00	3018,85
1843,00	3001,74
1844,00	3007,21
1845,00	2995,35
1846,00	2979,55
1847,00	2975,13
1848,00	2965,74
1849,00	2958,34
1850,00	2952,12
1851,00	2927,66
1852,00	2920,85
1853,00	2906,10
1854,00	2904,91
1855,00	2892,60
1856,00	2891,76
1857,00	2881,25
1858,00	2864,82
1859,00	2855,06
1860,00	2860,39
1861,00	2837,34
1862,00	2833,50
1863,00	2810,91
1864,00	2809,42
1865,00	2805,06
1866,00	2789,73
1867,00	2787,72
1868,00	2770,52
1869,00	2768,10
1870,00	2770,63
1871,00	2759,70
1872,00	2735,43
1873,00	2726,23
1874,00	2715,84
1875,00	2732,86
1876,00	2707,06
1877,00	2704,23
1878,00	2708,61
1879,00	2688,25
1880,00	2671,16
1881,00	2662,31
1882,00	2665,59
1883,00	2653,61
1884,00	2655,67
1885,00	2648,78
1886,00	2617,54
1887,00	2616,84
1888,00	2622,87
1889,00	2599,70
1890,00	2593,69
1891,00	2594,83
1892,00	2589,40
1893,00	2571,76
1894,00	2565,77
1895,00	2563,87
1896,00	2548,66
1897,00	2558,35
1898,00	2533,04
1899,00	2544,40
1900,00	2533,09
1901,00	2525,37
1902,00	2521,32
1903,00	2513,81
1904,00	2497,54
1905,00	2494,78
1906,00	2487,17
1907,00	2477,50
1908,00	2479,98
1909,00	2470,76
1910,00	2451,87
1911,00	2455,88
1912,00	2449,65
1913,00	2442,16
1914,00	2441,27
1915,00	2425,01
1916,00	2414,47
1917,00	2406,75
1918,00	2410,89
1919,00	2397,64
1920,00	2389,87
1921,00	2385,15
1922,00	2368,86
1923,00	2373,14
1924,00	2363,43
1925,00	2359,31
1926,00	2349,34
1927,00	2339,93
1928,00	2342,34
1929,00	2328,06
1930,00	2336,70
1931,00	2325,44
1932,00	2317,29
1933,00	2312,57
1934,00	2302,01
1935,00	2304,94
1936,00	2301,82
1937,00	2287,59
1938,00	2275,47
1939,00	2284,83
1940,00	2269,90
1941,00	2262,97
1942,00	2259,58
1943,00	2253,47
1944,00	2244,20
1945,00	2241,18
1946,00	2234,44
1947,00	2220,51
1948,00	2222,67
1949,00	2215,71
1950,00	2202,87
1951,00	2202,61
1952,00	2202,05
1953,00	2192,57
1954,00	2188,52
1955,00	2191,00
1956,00	2180,96
1957,00	2169,89
1958,00	2166,38
1959,00	2167,69
1960,00	2163,61
1961,00	2150,62
1962,00	2138,13
1963,00	2136,02
1964,00	2141,31
1965,00	2143,13
1966,00	2126,66
1967,00	2119,47
1968,00	2119,10
1969,00	2112,01
1970,00	2107,79
1971,00	2092,51
1972,00	2090,10
1973,00	2093,28
1974,00	2090,57
1975,00	2090,75
1976,00	2069,85
1977,00	2067,07
1978,00	2053,49
1979,00	2060,30
1980,00	2057,52
1981,00	2047,43
1982,00	2043,17
1983,00	2040,83
1984,00	2043,47
1985,00	2025,87
1986,00	2027,70
1987,00	2024,47
1988,00	2021,75
1989,00	2008,51
1990,00	2005,72
1991,00	2007,90
1992,00	1990,67
1993,00	1992,12
1994,00	1991,05
1995,00	1983,84
1996,00	1978,45
1997,00	1973,66
1998,00	1975,81
1999,00	1967,20
2000,00	1967,78
2001,00	1962,94
2002,00	1957,86
2003,00	1947,56
2004,00	1943,60
2005,00	1938,74
2006,00	1932,32
2007,00	1932,60
2008,00	1928,74
2009,00	1928,16
2010,00	1915,05
2011,00	1908,64
2012,00	1910,65
2013,00	1896,49
2014,00	1900,47
2015,00	1890,85
2016,00	1893,73
2017,00	1882,38
2018,00	1877,72
2019,00	1882,42
2020,00	1875,49
2021,00	1861,66
2022,00	1853,77
2023,00	1851,50
2024,00	1853,21
2025,00	1847,95
2026,00	1844,81
2027,00	1836,38
2028,00	1837,04
2029,00	1829,11
2030,00	1824,38
2031,00	1818,48
2032,00	1808,51
2033,00	1809,40
2034,00	1804,95
2035,00	1801,81
2036,00	1800,71
2037,00	1790,67
2038,00	1788,05
2039,00	1786,25
2040,00	1782,69
2041,00	1781,10
2042,00	1772,56
2043,00	1767,08
2044,00	1760,15
2045,00	1758,68
2046,00	1758,68
2047,00	1758,68
>>>>>End Processed Spectral Data<<<<<
